,time,travel,position,force,stress
0,0.0,0.0,26.86832473593,-0.014428852126,-7.348554044783689
1,0.0,0.0,26.86832992153,-0.01428961567581,-7.277641503003507
2,0.0,0.0,26.86833073364,-0.01467911619693,-7.476012489477482
3,0.0,0.0,26.86832450496,-0.01466633100063,-7.469501042470938
4,0.0,0.0,26.86832443045,-0.01469911355525,-7.486197060438787
5,0.0,0.0,26.82149672274,-0.01299961283803,-6.620648452650677
6,0.0,0.0,26.82150278774,-0.01302874460816,-6.635485141345737
7,0.008000001311302,-1.010694541037e-05,26.82151289468,-0.01295553520322,-6.598199897579282
8,0.01099999248981,-1.065735705197e-05,26.82151344509,-0.01313232257962,-6.688236969036266
9,0.01299999654293,-1.175259239972e-05,26.82151454033,-0.01319222524762,-6.718745147329362
10,0.01399999856949,-1.202081330121e-05,26.82151480855,-0.01321451738477,-6.730098439551779
11,0.1145000010729,-1.220405101776e-05,26.82151499179,-0.01050858944654,-5.3519806570885295
12,0.2149999886751,-3.958379238611e-06,26.82150674612,-0.01416132599115,-7.21230410312722
13,0.3149999976158,-4.61472554889e-05,26.82154893499,-0.01314476691186,-6.694574815402582
14,0.4155000001192,0.001504074782133,26.81999871295,-0.01166033186018,-5.938558251646598
15,0.4334999918938,0.01174844428897,26.80975434345,0.06655050069094,33.89389168065183
16,0.439499989152,0.02288736030459,26.79861542743,0.09677434712648,49.2867702709448
17,0.4434999972582,0.03374398872256,26.78775879901,0.09097886830568,46.33515714481773
18,0.4469999969006,0.04530252143741,26.7762002663,0.07800126820803,39.725719688782966
19,0.4499999880791,0.05648721382022,26.76501557392,0.06773210316896,34.49567688112068
20,0.452500000596,0.06658853590488,26.75491425183,0.05955339223146,30.33029360488748
21,0.4549999982119,0.07731546461582,26.74418732312,0.052480943501,26.728325044194012
22,0.4574999958277,0.08865274488926,26.73285004285,0.04797960072756,24.43580999477335
23,0.4599999934435,0.1005088239908,26.72099396375,0.04564691334963,23.24778206873933
24,0.4624999910593,0.1128989607096,26.70860382703,0.04435563832521,22.590141099051166
25,0.4644999951124,0.1231528669596,26.69834992078,0.04332471638918,22.065096868455832
26,0.4664999991655,0.1337272077799,26.68777557996,0.04139829427004,21.083978139679207
27,0.4684999883175,0.1445914655924,26.67691132214,0.03688932210207,18.787577471531353
28,0.4704999923706,0.1557456403971,26.66575714734,0.03058744035661,15.578055453705622
29,0.4724999964237,0.1671286970377,26.6543740907,0.02456784807146,12.512302277451349
30,0.4745000004768,0.1787236779928,26.64277910974,0.0180670004338,9.201447762824598
31,0.4764999896288,0.1904424279928,26.63106035974,0.008255599997938,4.204542553156076
32,0.4784999936819,0.2022374719381,26.6192653158,-0.004500748123974,-2.2922121969345173
33,0.480499997735,0.2139867395163,26.60751604822,-0.01571595855057,-8.004071964001774
34,0.4825000017881,0.2256749719381,26.5958278158,-0.02677858062088,-13.63821911935324
35,0.4844999909401,0.2372716516256,26.58423113611,-0.04060304164886,-20.678959305542943
36,0.4864999949932,0.2486394494772,26.57286333826,-0.05329835414886,-27.14462886865119
37,0.4884999990463,0.2597173154354,26.5617854723,-0.06127107143402,-31.2051004392349
38,0.4904999881983,0.2704747617245,26.55102802601,-0.06316673755646,-32.17055526751705
39,0.4924999922514,0.2809422910213,26.54056049672,-0.06030380725861,-30.71247683989984
40,0.4944999963045,0.2911504209042,26.53035236683,-0.05394089221954,-27.471870820886235
41,0.4969999939203,0.3036015927792,26.51790119496,-0.04383957386017,-22.327311625242555
42,0.4994999915361,0.3158238828182,26.50567890492,-0.03512680530548,-17.88993503806002
43,0.501999989152,0.3279088437557,26.49359394398,-0.02693283744156,-13.716781473007199
44,0.5045000016689,0.3399175107479,26.48158527699,-0.01960098929703,-9.98270187556371
45,0.5069999992847,0.351895660162,26.46960712757,-0.01468002889305,-7.476477321794406
46,0.5094999969006,0.363858550787,26.45764423695,-0.01154816243798,-5.8814308340245445
47,0.5119999945164,0.3758672177792,26.44563556996,-0.009007574059069,-4.5875197976549105
48,0.5144999921322,0.3879064023495,26.43359638539,-0.007107855286449,-3.6200009715846972
49,0.516999989748,0.400006622076,26.42149616566,-0.005381704773754,-2.7408797344134377
50,0.519500002265,0.4121373593807,26.40936542836,-0.003796697827056,-1.933642325127105
51,0.5219999998808,0.4243138730526,26.39718891468,-0.002915502758697,-1.4848533620629916
52,0.5244999974966,0.4365056455135,26.38499714222,-0.002687336178496,-1.3686490769834314
53,0.5269999951124,0.4487431943417,26.3727595934,-0.002199293347076,-1.1200909039880473
54,0.5294999927282,0.4610112607479,26.36049152699,-0.001305700512603,-0.6649878104908448
55,0.531999990344,0.4732945859432,26.34820820179,4.851701669395e-05,0.02470951369892527
56,0.5344999879599,0.4855931699276,26.33590961781,0.001387475756928,0.7066356004328328
57,0.5370000004768,0.497907012701,26.32359577504,0.002875207690522,1.4643312523597078
58,0.5394999980927,0.5102514028549,26.31125138488,0.004629968199879,2.358023441180887
59,0.5419999957085,0.5226110219955,26.29889176574,0.006401895079762,3.260458390719379
60,0.5444999933243,0.5350011587143,26.28650162902,0.008297800086439,4.226034881744394
61,0.5469999909401,0.5474065542221,26.27409623351,0.01022803690284,5.209096419882577
62,0.5494999885559,0.559827208519,26.26167557922,0.01293647196144,6.588491068265225
63,0.5520000010729,0.572278380394,26.24922440734,0.01596152596176,8.129138419531913
64,0.5544999986887,0.584744811058,26.23675797668,0.01876151375473,9.555160492645967
65,0.5569999963045,0.5972417593002,26.22426102844,0.02171790413558,11.060837749675112
66,0.5590000003576,0.6072515249252,26.21425126281,0.02416312508285,12.306178551946688
67,0.5609999895096,0.6172765493393,26.2042262384,0.02612006478012,13.302839755637178
68,0.5629999935627,0.6273015737534,26.19420121398,0.0277641993016,14.1401905914822
69,0.5649999976158,0.6373418569565,26.18416093078,0.02963912300766,15.095081393849002
70,0.5670000016689,0.6473668813705,26.17413590637,0.03166854381561,16.128656924085128
71,0.5689999908209,0.6573919057846,26.16411088195,0.0342892408371,17.46336695709742
72,0.570999994874,0.6674169301987,26.15408585754,0.0367306470871,18.706764950002853
73,0.5729999989271,0.6774266958237,26.14407609191,0.0394161939621,20.074502742198828
74,0.5749999880791,0.6874517202377,26.1340510675,0.04290664196014,21.85217331017731
75,0.5769999921322,0.6974614858627,26.12404130187,0.04665267467499,23.760012105544767
76,0.5789999961853,0.7074712514877,26.11403153625,0.05006682872772,25.49882648624623
77,0.5810000002384,0.7174810171127,26.10402177062,0.05315673351288,27.072502071019077
78,0.5834999978542,0.7299779653549,26.09152482238,0.05720412731171,29.13382280613357
79,0.5855000019073,0.7399877309799,26.08151505676,0.05989730358124,30.505446217056736
80,0.5879999995232,0.752469420433,26.0690333673,0.06240737438202,31.783814778512
81,0.590499997139,0.764920592308,26.05658219543,0.0657719373703,33.49737263748416
82,0.5929999947548,0.7773259878159,26.04417679992,0.06826865673065,34.768941366165556
83,0.5954999923706,0.7896703481674,26.03183243957,0.07058990001678,35.95114086410625
84,0.5979999899864,0.8019231557846,26.01957963195,0.07282149791718,37.08768434200114
85,0.6004999876022,0.8140691518784,26.00743363586,0.07382714748383,37.599857460562966
86,0.6030000001192,0.8260473012924,25.99545548644,0.07399380207062,37.684733944647974
87,0.605499997735,0.8378423452377,25.9836604425,0.07428395748138,37.83250888188738
88,0.6079999953508,0.8494085073471,25.97209428039,0.07433331012726,37.857643978036066
89,0.6104999929667,0.8606847524643,25.96081803527,0.07392728328705,37.65085620636438
90,0.6129999905825,0.8716558218002,25.94984696594,0.07390803098679,37.64105109035712
91,0.6154999881983,0.8822911977768,25.93921158996,0.07393495738506,37.654764592386975
92,0.6180000007153,0.8925145864487,25.92898820129,0.07351687550545,37.441837239564315
93,0.6209999918938,0.9042257070541,25.91727708068,0.07310166954994,37.23037458285837
94,0.6239999979734,0.9152654409409,25.9062373468,0.07326999306679,37.316101046043286
95,0.626999989152,0.9255574941635,25.89594529357,0.07262626290321,36.98825196587973
96,0.6304999887943,0.9365895986557,25.88491318908,0.07322189211845,37.29160343421699
97,0.6344999969006,0.9478505849838,25.87365220275,0.07469436526299,38.04152784869253
98,0.6389999985695,0.958752989769,25.86274979797,0.07859680056572,40.02902182797508
99,0.6439999938011,0.9687551259995,25.85274766174,0.08522674441338,43.40562450246081
100,0.6509999930859,0.9793142080307,25.84218857971,0.095877379179,48.8299482465082
101,0.6620000004768,0.9893258810043,25.83217690673,0.1185061633587,60.354693393256795
102,0.6909999996424,0.9979456663132,25.82355712142,0.1460818946362,74.39889800825812
103,0.7915000021458,1.002326965332,25.8191758224,0.1438481062651,73.26123893279649
104,0.891999989748,1.001954078674,25.81954870906,0.1408924460411,71.75593354159744
105,0.9919999986887,1.001420617104,25.82008217063,0.1383769661188,70.47481013717356
106,1.092500001192,1.000984549522,25.82051823821,0.1382652521133,70.41791466137224
107,1.192999988794,1.000679969788,25.82082281795,0.1371877491474,69.86914690707091
108,1.292999997735,1.000438332558,25.82106445518,0.1367149353027,69.6283447933228
109,1.393500000238,1.000299692154,25.82120309558,0.1356748491526,69.09863326682732
110,1.493999987841,1.000182509422,25.82132027831,0.1367039978504,69.62277439460797
111,1.593999996781,1.00008893013,25.82141385761,0.1348535567522,68.68035248203542
112,1.694499999285,1.000047683716,25.82145510402,0.1317151337862,67.08196679066893
113,1.795000001788,1.000035524368,25.82146726337,0.1346947103739,68.5994526858796
114,1.89549998939,1.000016927719,25.82148586002,0.1334027349949,67.9414550285328
115,1.995499998331,0.9999977350235,25.82150505271,0.1362856626511,69.40971802712662
116,2.096000000834,1.000000476837,25.8215023109,0.1323013454676,67.3805219484066
117,2.196499988437,1.000034570694,25.82146821704,0.132725790143,67.59668984651523
118,2.296499997377,1.000015616417,25.82148717132,0.1345440298319,68.522711716001
119,2.396999999881,1.000023365021,25.82147942272,0.1321723759174,67.31483829585406
120,2.497499987483,1.000019311905,25.82148347583,0.130977705121,66.70639745548736
121,2.597499996424,0.9999988675117,25.82150392023,0.1299841105938,66.20036391810197
122,2.697999998927,0.9999877810478,25.82151500669,0.1306881308556,66.55891849314939
123,2.798500001431,1.000015258789,25.82148752895,0.1312343627214,66.83711209800181
124,2.898999989033,1.000007390976,25.82149539676,0.1287388950586,65.5661808536479
125,2.998999997973,1.00001502037,25.82148776737,0.1325329393148,67.49847172623556
126,3.099500000477,1.000032544136,25.8214702436,0.1314630359411,66.9535744124594
127,3.199999988079,0.9999949932098,25.82150779453,0.1311727315187,66.80572358421492
128,3.29999999702,1.000017404556,25.82148538318,0.1295743584633,65.99167887166514
129,3.400499999523,0.9999963641167,25.82150642362,0.1285094171762,65.44930872784239
130,3.501000002027,1.000015854836,25.8214869329,0.1306856125593,66.5576359353756
131,3.601499989629,1.000027179718,25.82147560802,0.1297323703766,66.07215367828627
132,3.701499998569,1.000021576881,25.82148121086,0.1293777525425,65.89154829842849
133,3.802000001073,1.000005602837,25.8214971849,0.1298862993717,66.15054907174333
134,3.902499988675,0.9999905228615,25.82151226488,0.1285332292318,65.46143610817492
135,4.002499997616,0.9999970793724,25.82150570836,0.1280996352434,65.24060850321881
136,4.103000000119,1.000023603439,25.8214791843,0.1264882236719,64.41992332894775
137,4.203499987721,1.000021696091,25.82148109165,0.1283760219812,65.38137111290172
138,4.303499996662,1.000006079674,25.82149670806,0.1281845122576,65.2838360115862
139,4.403999999166,1.000022768974,25.82148001876,0.1275975257158,64.98488622068736
140,4.504500001669,0.9999902844429,25.82151250329,0.1262096762657,64.27806029988486
141,4.604999989271,0.9999942183495,25.82150856939,0.125025048852,63.674734512324775
142,4.704999998212,1.000012278557,25.82149050918,0.1251709610224,63.749046970489346
143,4.805500000715,1.000001430511,25.82150135723,0.1251718848944,63.74951749463522
144,4.905999988317,1.000012397766,25.82149038997,0.1251145899296,63.72033740867619
145,5.005999997258,1.000009059906,25.82149372783,0.1260828226805,64.21345429945762
146,5.106499999762,0.9999902248383,25.8215125629,0.1239234805107,63.113710362976185
147,5.207000002265,0.9999767541885,25.82152603355,0.1258176863194,64.07842145957774
148,5.307499989867,1.000005364418,25.82149742332,0.1254670917988,63.89986513645959
149,5.407499998808,0.9999871850014,25.82151560274,0.1246833577752,63.50071267589882
150,5.508000001311,1.000028252602,25.82147453514,0.1244437620044,63.37868755184527
151,5.608499988914,1.000000953674,25.82150183406,0.1232825219631,62.78727285524005
152,5.708499997854,1.000018596649,25.82148419109,0.1256356090307,63.98569025790935
153,5.809000000358,1.00001513958,25.82148764816,0.1265706121922,64.46188345777902
154,5.90949998796,1.000002503395,25.82150028434,0.1259088516235,64.12485156769291
155,6.009499996901,1.000016570091,25.82148621765,0.1238035708666,63.05264088271089
156,6.10949999094,1.000027298927,25.82147548881,0.1258820742369,64.1112139566834
157,6.209499999881,1.000035047531,25.82146774021,0.1265990883112,64.47638622609558
158,6.30949999392,1.000045418739,25.821457369,0.124757014215,63.53822559264993
159,6.40949998796,0.999991953373,25.82151083436,0.1268932372332,64.62619504190823
160,6.509499996901,0.9999887943268,25.82151399341,0.1221813932061,62.22647258433706
161,6.60949999094,1.000017523766,25.82148526397,0.1232186257839,62.754730798394085
162,6.709499999881,1.000029325485,25.82147346225,0.1238953694701,63.09939352756196
163,6.80949999392,1.000032663345,25.82147012439,0.1237114518881,63.005725072212165
164,6.90949998796,1.000039815903,25.82146297183,0.1260426193476,64.19297891014625
165,7.009499996901,0.999988257885,25.82151452985,0.1223125606775,62.29327562896482
166,7.10949999094,0.9999727606773,25.82153002706,0.1258955895901,64.11809726954552
167,7.209499999881,1.000012516975,25.82149027076,0.1248562932014,63.58878796522821
168,7.30949999392,1.000002384186,25.82150040355,0.1225705817342,62.42468467407074
169,7.40949998796,0.9999769926071,25.82152579513,0.1231546401978,62.72214320698785
170,7.509499996901,0.9999870061874,25.82151578155,0.1213773712516,61.816987565415204
171,7.60949999094,0.9999915957451,25.82151119199,0.1200372055173,61.13444676165128
172,7.709499999881,0.9999930262566,25.82150976148,0.1213633269072,61.809834839547214
173,7.80949999392,0.9999934434891,25.82150934425,0.1211197152734,61.685764453262536
174,7.90949998796,0.9999988079071,25.82150397983,0.1202308163047,61.23305192597328
175,8.009499996901,1.000020623207,25.82148216453,0.1211469769478,61.69964871002324
176,8.10949999094,0.9999740719795,25.82152871576,0.1214397698641,61.84876691780384
177,8.209499999881,0.9999911785126,25.82151160922,0.1202405765653,61.238022785878414
178,8.30949999392,1.000029325485,25.82147346225,0.1194283291698,60.82434858425491
179,8.40949998796,1.000026464462,25.82147632327,0.120230704546,61.23299500773476
180,8.509499996901,0.9999942183495,25.82150856939,0.1208864450455,61.56696090175387
181,8.60949999094,1.000000119209,25.82150266853,0.1210597977042,61.655248685850594
182,8.709499999881,1.000009179115,25.82149360862,0.1204090937972,61.323847907328165
183,8.80949999392,0.9999995827675,25.82150320497,0.1224645599723,62.37068823412931
184,8.90949998796,1.000024676323,25.82147811141,0.1192438751459,60.73040692128892
185,9.009499996901,1.000023722649,25.82147906509,0.1201580539346,61.195994355181284
186,9.10949999094,1.000001907349,25.82150088039,0.1203046143055,61.27063693914966
187,9.209499999881,0.9999875426292,25.82151524511,0.1201004609466,61.166662487252864
188,9.30949999392,1.000022768974,25.82148001876,0.120661213994,61.45225166916504
189,9.40949998796,1.000005483627,25.82149730411,0.1221789121628,62.225208999360355
190,9.509499996901,0.9999601840973,25.82154260364,0.1224969476461,62.387183140946966
191,9.60949999094,1.000004768372,25.82149801937,0.1204726099968,61.35619644215297
192,9.709499999881,1.000007152557,25.82149563518,0.1228424906731,62.563166759500525
193,9.80949999392,0.9999983310699,25.82150445667,0.1191816851497,60.69873381630941
194,9.90949998796,0.9999933838844,25.82150940385,0.1224717274308,62.37433859076828
195,10.0094999969,0.9999943375587,25.82150845018,0.1170482933521,59.61220629586223
196,10.10949999094,1.00000500679,25.82149778095,0.123449742794,62.87243772508219
197,10.20949999988,0.9999879598618,25.82151482788,0.1206699535251,61.45670267580462
198,10.30949999392,1.000035881996,25.82146690574,0.1196204200387,60.92217966044133
199,10.40949998796,1.00000333786,25.82149944988,0.1227584630251,62.52037182978665
200,10.5094999969,1.00000667572,25.82149611202,0.1208561509848,61.551532263332334
201,10.60949999094,1.000023961067,25.82147882667,0.12204798311,62.158527380328486
202,10.70949999988,1.000008106232,25.82149468151,0.1217173859477,61.99015562816145
203,10.80900000036,1.000018954277,25.82148383346,0.1203176602721,61.27728119537943
204,10.80999998748,1.000018358231,25.82148442951,0.1204111203551,61.32488002479136
205,10.81299999356,1.00001335144,25.8214894363,0.1208831891418,61.565302683616
206,10.9129999876,0.9998627305031,25.82164005723,0.1209772229195,61.61319369333938
207,10.98799999058,0.9897872209549,25.83171556678,0.1137446910143,57.92969544123563
208,11.00849999487,0.9796065092087,25.84189627853,0.09481371194124,48.288226970686104
209,11.0189999938,0.9692744016647,25.85222838607,0.08392322808504,42.74174908788062
210,11.02650000155,0.9591501951218,25.86235259262,0.09141147881746,46.5554838692443
211,11.03350000083,0.9485338926315,25.87296889511,0.09246606379747,47.09257958917728
212,11.03999999166,0.9380091428757,25.88349364486,0.09264440089464,47.18340592694133
213,11.04599998891,0.927961230278,25.89354155746,0.09165019541979,46.677061236472845
214,11.05200000107,0.9177874326706,25.90371535507,0.09355748444796,47.64843556203506
215,11.05849999189,0.9070757627487,25.91442702499,0.0955997183919,48.688536768845005
216,11.06549999118,0.8964060544968,25.92509673324,0.1006534770131,51.26239489926824
217,11.07299999893,0.8863352537155,25.93516753402,0.08520013839006,43.39207416605314
218,11.08100000024,0.8759630918503,25.94553969589,0.07097131758928,36.14539523865181
219,11.08849999309,0.8658388853073,25.95566390243,0.06164056435227,31.3932816372411
220,11.09549999237,0.8557413816452,25.96576140609,0.06037891283631,30.750727796522966
221,11.10249999166,0.8452624082565,25.97624037948,0.06390083581209,32.544428439032735
222,11.10949999094,0.8349474668503,25.98655532089,0.06476432830095,32.98420155239207
223,11.11699999869,0.8244532346725,25.99704955306,0.06361133605242,32.396987422151476
224,11.125,0.8141688108444,26.00733397689,0.06226748600602,31.712570213643207
225,11.13399998844,0.8039683103561,26.01753447738,0.05905980244279,30.078910389762633
226,11.14450000226,0.7939318418503,26.02757094589,0.0530422590673,27.014200714629443
227,11.15699999034,0.7835348844528,26.03796790328,0.03547557815909,18.06756359379857
228,11.1684999913,0.7733420133591,26.04816077438,0.02871975116432,14.626849158946381
229,11.17899999022,0.7631186246872,26.05838416305,0.02483638934791,12.649069226479268
230,11.18899999559,0.7527655363083,26.06873725143,0.0231343191117,11.782211973415553
231,11.19900000095,0.7423399686813,26.07916281906,0.02129087410867,10.843353142854662
232,11.20899999142,0.7321509122849,26.08935187545,0.01792631112039,9.1297952838825
233,11.21949999034,0.721683382988,26.09981940475,0.0136614786461,6.957733940707803
234,11.22999998927,0.7113703489304,26.11013243881,0.008016680367291,4.082861784454764
235,11.2404999882,0.701139330864,26.12036345687,0.002919291611761,1.486783009083102
236,11.25100000203,0.6908871531487,26.13061563459,-0.001945999450982,-0.9910893820092792
237,11.26150000095,0.6804501414299,26.14105264631,-0.007084396667778,-3.6080535952019854
