,time,travel,position,force,stress
0,0.0,0.0,17.43180500174,-0.01389089506119,-7.67640490610828
1,0.0,0.0,17.43180366064,-0.01388735603541,-7.6744491649741935
2,0.0,0.0,17.43180079962,-0.0139705343172,-7.720415257699087
3,0.0,0.0,17.43180240894,-0.01404080819339,-7.759250100636123
4,0.0,0.0,17.43179768527,-0.01396928261966,-7.7197235429395485
5,0.0,0.0,17.59426138357,-0.01254982315004,-6.935299962701274
6,0.0,0.0,17.5942623487,-0.01258493028581,-6.954700914769308
7,0.008000001311302,-4.390487447381e-06,17.59426673918,-0.01302162371576,-7.196027018909228
8,0.01099999248981,4.598638042808e-06,17.59425775006,-0.01356378756464,-7.495638326252906
9,0.01299999654293,3.618886694312e-06,17.59425872981,-0.01377264223993,-7.611055874726017
10,0.01399999856949,6.301095709205e-06,17.5942560476,-0.01379782520235,-7.6249725169164355
11,0.1145000010729,1.711596269161e-06,17.5942606371,-0.01270810700953,-7.022770999678692
12,0.2149999886751,3.13137206831e-05,17.59423103497,-0.01089424174279,-6.020390363205185
13,0.3149999976158,7.655628905923e-06,17.59425469307,-0.01242443267256,-6.866006510244347
14,0.4155000001192,1.769505252014e-05,17.59424465364,-0.01333732996136,-7.370493024298894
15,0.4784999936819,0.01003868598491,17.58422366271,0.02820410020649,15.586187372645938
16,0.4864999949932,0.02072937600315,17.57353297269,0.06667913496494,36.848312259589704
17,0.4914999902248,0.031593631953,17.56266871674,0.06781281530857,37.47480819908565
18,0.4954999983311,0.04249603673816,17.55176631196,0.06945504248142,38.382337963804076
19,0.4989999979734,0.05360443517566,17.54065791352,0.08349312841892,46.14008368776917
20,0.501999989152,0.06446106731892,17.52980128138,0.0996979624033,55.09522059956644
21,0.5045000016689,0.07456238567829,17.51969996302,0.1063393503428,58.76539323693561
22,0.5069999992847,0.0856250077486,17.50863734095,0.1052647978067,58.17157258508753
23,0.5094999969006,0.09754212200642,17.49672022669,0.1006909757853,55.643980975614
24,0.5115000009537,0.1075976639986,17.4866646847,0.09767355024815,53.97648726155449
25,0.5134999901056,0.1181109696627,17.47615137903,0.09625066816807,53.190172273771125
26,0.5154999941587,0.1290362626314,17.46522608606,0.09622158110142,53.17409814030796
27,0.5174999982119,0.1403277665377,17.45393458216,0.09673608839512,53.45842584533987
28,0.519500002265,0.1520007401705,17.44226160852,0.09670080244541,53.43892607687446
29,0.5214999914169,0.1640399247408,17.43022242395,0.0961362272501,53.1269297814555
30,0.52349999547,0.1763537675142,17.41790858118,0.09568275511265,52.87633140565822
31,0.5254999995232,0.1889422684908,17.4053200802,0.09377063810825,51.81965476322653
32,0.5274999886751,0.2017291337252,17.39253321497,0.089315071702,49.357413729098475
33,0.5294999927282,0.214638069272,17.37962427942,0.08441700041294,46.65063505802073
34,0.5314999967813,0.2276232987642,17.36663904993,0.07858051359653,43.42526794995708
35,0.5335000008345,0.2406085282564,17.35365382044,0.07178272306919,39.66866390645214
36,0.5354999899864,0.2535021901131,17.34076015858,0.06792606413364,37.537391915437176
37,0.5374999940395,0.2662737965584,17.32798855214,0.07025589048862,38.824903654815095
38,0.5394999980927,0.2789233326912,17.315339016,0.07741989195347,42.78388367373335
39,0.5415000021458,0.2914507985115,17.30281155018,0.08576644957066,47.3963694465705
40,0.5434999912977,0.3039019703865,17.29036037831,0.09402145445347,51.958261225552945
41,0.5454999953508,0.3162921071053,17.27797024159,0.09962905943394,55.05714334898535
42,0.547499999404,0.3285754323006,17.26568691639,0.10044015944,55.50537451324338
43,0.5494999885559,0.3407519459724,17.25351040272,0.09748949110508,53.87477225307932
44,0.551499992609,0.3527148365974,17.2415475121,0.09443582594395,52.187251749810756
45,0.5534999966621,0.3644335865974,17.2298287621,0.09597696363926,53.0389173129838
46,0.5555000007153,0.3758624196053,17.21839992909,0.1036216169596,57.26351579963651
47,0.5574999898672,0.3870623707771,17.20719997792,0.1163016706705,64.27078394811035
48,0.5594999939203,0.3980639576912,17.196198391,0.1306601911783,72.20560865055036
49,0.5614999979734,0.4089129567146,17.18534939198,0.144255772233,79.7188167375713
50,0.5635000020266,0.4196551442146,17.17460720448,0.1561423689127,86.28760360602256
51,0.5654999911785,0.4302905201912,17.1639718285,0.1662589460611,91.87823992664191
52,0.5674999952316,0.4408648610115,17.15339748768,0.1749869734049,96.70153400722174
53,0.5694999992847,0.4513629078865,17.14289944081,0.1825782209635,100.89661933078241
54,0.5714999884367,0.4617694020271,17.13249294667,0.1899939924479,104.99473283280388
55,0.5734999924898,0.4720843434334,17.12217800526,0.1977530866861,109.28257381171143
56,0.5754999965429,0.4823382496834,17.11192409901,0.2063132673502,114.01311223688914
57,0.577500000596,0.4925158619881,17.10174648671,0.2155906111002,119.13997028055303
58,0.579499989748,0.5026324391365,17.09162990956,0.2254935652018,124.61255394889261
59,0.5814999938011,0.5126879811287,17.08157436757,0.2360068708658,130.42243090952323
60,0.5834999978542,0.5227130055428,17.07154934315,0.2466880232096,136.32506352561128
61,0.5855000019073,0.5327227711678,17.06153957753,0.2566978037357,141.85668175475644
62,0.5879999995232,0.5451892018318,17.04907314686,0.2668220102787,147.4515342415681
63,0.590499997139,0.5576556324959,17.0366067162,0.2764884531498,152.7934167591062
64,0.5929999947548,0.5700915455818,17.02417080311,0.2872611582279,158.74664336900474
65,0.5954999923706,0.5824969410896,17.01176540761,0.2988120615482,165.12991892665173
66,0.5979999899864,0.5949023365974,16.9993600121,0.3103629648685,171.51319448429874
67,0.6005000025034,0.6072924733162,16.98696987538,0.3217460215092,177.80371438659884
68,0.6030000001192,0.6196826100349,16.97457973866,0.3333884775639,184.23758393811158
69,0.605499997735,0.6320880055428,16.96217434315,0.3445731699467,190.41848352035078
70,0.6079999953508,0.6445086598396,16.94975368886,0.3551169931889,196.24522514564015
71,0.6104999929667,0.6569293141365,16.93733303456,0.366133838892,202.33336907247724
72,0.6129999905825,0.6693652272224,16.92489712147,0.3779594004154,208.86842661166622
73,0.6154999881983,0.6818011403084,16.91246120839,0.3902579843998,215.66488645245815
74,0.6180000007153,0.6942523121834,16.90001003651,0.4017325937748,222.00600034856876
75,0.6204999983311,0.7066882252693,16.88757412343,0.413008838892,228.23749392467374
76,0.6229999959469,0.7191241383553,16.87513821034,0.4246055185795,234.6460664792536
77,0.6254999935627,0.7315447926521,16.86271755604,0.435973316431,240.92815404916905
78,0.6279999911785,0.743965446949,16.85029690175,0.4480582773685,247.60656123762598
79,0.6304999887943,0.7563708424568,16.83789150624,0.4602042734623,254.3186977553451
80,0.6330000013113,0.7687609791756,16.82550136952,0.4720603525639,260.8706199591929
81,0.6354999989271,0.7811053395271,16.81315700917,0.4846641123295,267.83572644613037
82,0.6379999965429,0.7934344410896,16.80082790761,0.4988242685795,275.66093082856474
83,0.6404999941587,0.805733025074,16.78852932362,0.5130454301834,283.5198480708194
84,0.6429999917746,0.8180163502693,16.77624599843,0.5265341997147,290.9740298317004
85,0.6454999893904,0.8302996754646,16.76396267323,0.5398856401443,298.3523206017276
86,0.6480000019073,0.8425830006599,16.75167934804,0.5550376176834,306.72562658424545
87,0.6504999995232,0.8548663258553,16.73939602284,0.5709677934647,315.5289815145117
88,0.652999997139,0.8671801686287,16.72708218007,0.585936665535,323.80109950929807
89,0.6554999947548,0.8794940114021,16.71476833729,0.6002036333084,331.6853302178723
90,0.6580000072718,0.891826570034,16.70243577866,0.6150364279747,339.8822489366527
91,0.6604999899864,0.9041556715965,16.6901066771,0.6294865012169,347.86766763295844
92,0.6630000025034,0.9165152907372,16.67774705796,0.6438450217247,355.8024923353985
93,0.6655000001192,0.9288901686668,16.66537218003,0.6588749289513,364.108339659447
94,0.667999997735,0.9412650465965,16.6529973021,0.6747593283653,372.88639759272513
95,0.6704999953508,0.9536704421043,16.64059190659,0.6909641623497,381.8415345045335
96,0.6729999929667,0.9660910964012,16.62817125229,0.7073673605919,390.9062917363474
97,0.6754999905825,0.9785270094872,16.61573533921,0.7241215109825,400.16499261123977
98,0.6779999881983,0.9909781813622,16.60328416733,0.7406925559044,409.3225054984559
99,0.6805000007153,1.003444671631,16.59081767706,0.7569126486778,418.2860747425383
100,0.6829999983311,1.015926361084,16.57833598761,0.773300588131,427.34239964207814
101,0.6850000023842,1.025936126709,16.56832622199,0.7868351340294,434.8218783998368
102,0.6869999915361,1.035945892334,16.55831645636,0.8008579611778,442.57119179147253
103,0.6889999955893,1.045955657959,16.54830669074,0.81481975317,450.28677585390125
104,0.6909999996424,1.055965423584,16.53829692511,0.828735768795,457.9770629193971
105,0.6929999887943,1.065975189209,16.52828715949,0.8427128195763,465.70107931415515
106,0.6949999928474,1.076000213623,16.51826213507,0.8571323752403,473.6696333458022
107,0.6969999969006,1.086009979248,16.50825236945,0.8714756369591,481.5960257159681
108,0.6990000009537,1.096019744873,16.49824260382,0.8855900168419,489.39593310146955
109,0.7014999985695,1.108516693115,16.48574565558,0.9033054709435,499.1858709118419
110,0.7039999961853,1.120998382568,16.47326396613,0.9224552512169,509.7684479591866
111,0.7064999938011,1.133464813232,16.46079753546,0.9425968527794,520.8991266066148
112,0.7089999914169,1.145931243896,16.4483311048,0.963013112545,532.181587235585
113,0.7114999890327,1.158382415771,16.43587993292,0.9834904074669,543.4977771938175
114,0.7140000015497,1.170833587646,16.42342876105,1.003479480743,554.5441654567253
115,0.7164999991655,1.183284759521,16.41097758917,1.023285388947,565.4893327938464
116,0.7189999967813,1.195720672607,16.39854167609,1.043396472931,576.60314677645
117,0.7214999943972,1.208156585693,16.386105763,1.06457567215,588.3072240210051
118,0.723999992013,1.22057723999,16.3736851087,1.08606004715,600.1799479115951
119,0.7264999896288,1.232997894287,16.36126445441,1.107422351837,611.9852131434398
120,0.7290000021458,1.245418548584,16.34884380011,1.128784656525,623.7904783758368
121,0.7314999997616,1.257823944092,16.3364384046,1.151428699493,636.3040595214704
122,0.7339999973774,1.270259857178,16.32400249152,1.174011707306,648.7839113385601
123,0.7364999949932,1.282695770264,16.31156657843,1.196045398712,660.9601991921238
124,0.738999992609,1.295162200928,16.29910014777,1.218353748322,673.2882690277266
125,0.7414999902248,1.307643890381,16.28661845831,1.241119861603,685.8693088321058
126,0.7440000027418,1.320140838623,16.27412151007,1.263672351837,698.3322959840948
127,0.7465000003576,1.332637786865,16.26162456183,1.28640794754,710.8964711239257
128,0.7484999895096,1.342662811279,16.25159953742,1.304718494415,721.015269894315
129,0.7504999935627,1.352687835693,16.241574513,1.322968006134,731.1003393356077
130,0.7524999976158,1.362712860107,16.23154948859,1.341156482697,741.151679447804
131,0.7545000016689,1.372753143311,16.22150920538,1.359314441681,751.1861548948995
132,0.7564999908209,1.382778167725,16.21148418097,1.377411365509,761.1869010128984
133,0.758499994874,1.392803192139,16.20145915656,1.395599842072,771.2382411250948
134,0.7604999989271,1.402828216553,16.19143413214,1.414551258087,781.7111978521024
135,0.7629999965429,1.415325164795,16.1789371839,1.439392566681,795.4390348507351
136,0.765000000596,1.42533493042,16.16892741828,1.459412097931,806.502254839694
137,0.766999989748,1.435344696045,16.15891765265,1.479248523712,817.464286840811
138,0.7689999938011,1.44535446167,16.14890788703,1.499176502228,828.4769128361252
139,0.7709999978542,1.455379486084,16.13888286261,1.518982410431,839.4220801726938
140,0.7730000019073,1.465419769287,16.12884257941,1.538422107697,850.164871534131
141,0.7749999910593,1.47546005249,16.1188022962,1.557709217072,860.8233395722743
142,0.7769999951124,1.485515594482,16.10874675421,1.577362537384,871.6841835855491
143,0.7789999991655,1.495571136475,16.09869121222,1.597198963165,882.6462155866661
144,0.7809999883175,1.505641937256,16.08862041144,1.616943836212,893.5576535941383
145,0.7829999923706,1.515712738037,16.07854961066,1.636780261993,904.5196855952552
146,0.7849999964237,1.525783538818,16.06847880988,1.656769275665,915.5660409196659
147,0.7870000004768,1.5358543396,16.0584080091,1.676636219025,926.5449375858835
148,0.7889999896288,1.545925140381,16.04833720831,1.696960926056,937.7768042208774
149,0.7909999936819,1.556011199951,16.03825114874,1.717529773712,949.1435881728099
150,0.792999997735,1.566082000732,16.02818034796,1.738190174103,960.5609661189396
151,0.7950000017881,1.576168060303,16.01809428839,1.759033679962,972.0795320523589
152,0.7969999909401,1.586254119873,16.00800822882,1.78006029129,983.6992859736202
153,0.7989999949932,1.596340179443,15.99792216925,1.801300525665,995.4370925472717
154,0.8009999990463,1.606441497803,15.98782085089,1.822662830353,1007.2423577796687
155,0.8029999881983,1.616542816162,15.97771953253,1.844299793243,1019.1994049930001
156,0.8049999922514,1.626659393311,15.96760295538,1.86550951004,1030.9203469021033
157,0.8069999963045,1.636775970459,15.95748637824,1.886444568634,1042.4895068297199
158,0.8090000003576,1.646923065186,15.94733928351,1.907593250275,1054.1767194097267
159,0.8109999895096,1.657070159912,15.93719218878,1.929047107697,1066.0325786357685
160,0.8129999935627,1.667232513428,15.92702983527,1.950378894806,1077.8209792030648
161,0.8149999976158,1.677410125732,15.91685222296,1.971344470978,1089.4070037952295
162,0.8170000016689,1.687572479248,15.90668986945,1.99246263504,1101.0773517101356
163,0.8189999908209,1.697765350342,15.89649699835,2.013550281525,1112.730834961046
164,0.820999994874,1.707927703857,15.88633464484,2.034546375275,1124.333724217759
165,0.8229999989271,1.718090057373,15.87617229132,2.056091785431,1136.2401774374455
166,0.8250000029802,1.728252410889,15.86600993781,2.078125476837,1148.4164652910092
167,0.8269999921322,1.738399505615,15.85586284308,2.099945545197,1160.4747004927349
168,0.8289999961853,1.748546600342,15.84571574835,2.12121629715,1172.2293717309349
169,0.8310000002384,1.758678436279,15.83558391242,2.142670154572,1184.0852309569766
170,0.8329999893904,1.768810272217,15.82545207648,2.164642810822,1196.2277894814438
171,0.8349999934435,1.778942108154,15.81532024054,2.18679857254,1208.4715359932002
172,0.8369999974966,1.789058685303,15.80520366339,2.20925951004,1220.8839291515444
173,0.8390000015497,1.799160003662,15.79510234503,2.231415271759,1233.1276756638536
174,0.8409999907017,1.809276580811,15.78498576788,2.253326892853,1245.2365048592242
175,0.8429999947548,1.81937789917,15.77488444953,2.275574207306,1257.5308453651783
176,0.8449999988079,1.829479217529,15.76478313117,2.297791004181,1269.8083212065837
177,0.847000002861,1.839580535889,15.75468181281,2.319702625275,1281.9171504019544
178,0.848999992013,1.849681854248,15.74458049445,2.341797351837,1294.1271675846144
179,0.8509999960661,1.859767913818,15.73449443488,2.364410877228,1306.6238840662525
180,0.8530000001192,1.8698387146,15.7244236341,2.387299060822,1319.2723825293772
181,0.8549999892712,1.879940032959,15.71432231574,2.410309314728,1331.9883396506948
182,0.8569999933243,1.890041351318,15.70422099738,2.433136463165,1344.6031087841704
183,0.8589999973774,1.900127410889,15.69413493781,2.455749988556,1357.0998252658085
184,0.8610000014305,1.910228729248,15.68403361945,2.478271961212,1369.545947753249
185,0.8629999905825,1.920330047607,15.67393230109,2.500916004181,1382.0595288994352
186,0.8649999946356,1.930431365967,15.66383098273,2.524170398712,1394.9104033376916
187,0.8669999986887,1.940532684326,15.65372966437,2.547821521759,1407.9805184161798
188,0.8690000027418,1.950649261475,15.64361308722,2.571197986603,1420.8988515131819
189,0.8709999918938,1.960781097412,15.63348125128,2.594177722931,1433.5979439699513
190,0.8729999959469,1.97091293335,15.62334941535,2.616852283478,1446.1283897806857
191,0.875,1.981044769287,15.61321757941,2.639648914337,1458.7262942496131
192,0.876999989152,1.991207122803,15.60305522589,2.663055896759,1471.661492011163
193,0.8789999932051,2.001384735107,15.59287761359,2.6871342659,1484.9677123944323
194,0.8809999972582,2.011562347412,15.58270000128,2.710815906525,1498.0546921374691
195,0.8830000013113,2.021739959717,15.57252238898,2.733887195587,1510.804378587883
196,0.8849999904633,2.0319480896,15.5623142591,2.756897449493,1523.520335709201
197,0.8869999945164,2.042156219482,15.55210612921,2.779846668243,1536.202563501422
198,0.8889999985695,2.052349090576,15.54191325812,2.802948474884,1548.969114616937
199,0.8910000026226,2.062557220459,15.53170512824,2.826477527618,1561.9717710366801
200,0.8929999917746,2.072750091553,15.52151225714,2.850067615509,1575.008156786072
201,0.8949999958277,2.082942962646,15.51131938605,2.873199939728,1587.7915725661353
202,0.8969999998808,2.093120574951,15.50114177374,2.896667957306,1600.7604996567818
203,0.8989999890327,2.103298187256,15.49096416144,2.9205327034,1613.9486673876606
204,0.9009999930859,2.113460540771,15.48080180792,2.944305896759,1627.086241124342
205,0.902999997139,2.123638153076,15.47062419562,2.967590808868,1639.9539802271465
206,0.9050000011921,2.133769989014,15.46049235968,2.990784168243,1652.7711253363063
207,0.906999990344,2.143886566162,15.45037578253,3.014374256134,1665.8075110856983
208,0.9089999943972,2.154000759125,15.44026158957,3.038155317307,1678.949432744218
209,0.9109999984503,2.164071559906,15.43019078879,3.061836957932,1692.036412487255
210,0.9130000025034,2.174127101898,15.4201352468,3.085884809494,1705.3257682054232
211,0.9149999916553,2.18418264389,15.4100797048,3.110024213791,1718.665717917789
212,0.9169999957085,2.194207668304,15.40005468039,3.133675336838,1731.7358329962772
213,0.9189999997616,2.204217433929,15.39004491477,3.157356977463,1744.822812739314
214,0.9214999973774,2.216699123383,15.37756322531,3.18750834465,1761.4851013809455
215,0.9239999949932,2.229165554047,15.36509679465,3.217812299728,1778.2317133458707
216,0.926499992609,2.241616725922,15.35264562277,3.247719526291,1794.7590846711162
217,0.9289999902248,2.254022121429,15.34024022727,3.277809858322,1811.387643983651
218,0.9315000027418,2.266396999359,15.32786534934,3.308846235275,1828.5390078993914
219,0.9340000003576,2.278771877289,15.31549047141,3.339760541916,1845.6229131569394
220,0.9364999979734,2.291131496429,15.30313085227,3.370644330978,1862.6899537493864
221,0.9389999955893,2.30349111557,15.29077123313,3.401436567307,1879.706400348741
222,0.9414999932051,2.315850734711,15.27841161398,3.431404829025,1896.2675010025303
223,0.9439999908209,2.328210353851,15.26605199484,3.461861371994,1913.0984362907493
224,0.9464999884367,2.340569972992,15.2536923757,3.492409467697,1929.979965572613
225,0.9490000009537,2.352929592133,15.24133275656,3.521553754807,1946.0857202824945
226,0.9514999985695,2.365289211273,15.22897313742,3.550575971603,1962.124016333078
227,0.9539999961853,2.377603054047,15.21665929465,3.580971479416,1978.9212222922006
228,0.9564999938011,2.38991689682,15.20434545188,3.612190961838,1996.1737741957834
229,0.9589999914169,2.402215480804,15.19204686789,3.643044233322,2013.223950123682
230,0.9614999890327,2.414514064789,15.17974828391,3.673256635666,2029.9199680949625
231,0.9640000015497,2.426812648773,15.16744969992,3.703682661057,2046.7340387186332
232,0.9664999991655,2.439126491547,15.15513585715,3.734352827072,2063.68302665869
233,0.9689999967813,2.451409816742,15.14285253195,3.764931440353,2080.581420605102
234,0.9714999943972,2.463723659515,15.13053868918,3.795326948166,2097.3786265642243
235,0.973999992013,2.476006984711,15.11825536398,3.825569868088,2114.0915092000528
236,0.9764999896288,2.488320827484,15.10594152121,3.856148481369,2130.9899031464647
237,0.9790000021458,2.500619411469,15.09364293723,3.886360883713,2147.6859211177452
238,0.9814999997616,2.512917995453,15.08134435324,3.916756391525,2164.483127076315
239,0.9839999973774,2.525216579437,15.06904576926,3.947823286057,2181.6513556571567
