,time,travel,position,force,stress
0,0.0,0.0,12.74231853829,-0.02627643197775,-15.811054956812326
1,0.0,0.0,12.74231523023,-0.02634485810995,-15.852228329879583
2,0.0,0.0,12.74230500803,-0.02664052695036,-16.030138187987337
3,0.0,0.0,12.74230324969,-0.02671026438475,-16.072100597823688
4,0.0,0.0,12.74230511234,-0.02664136141539,-16.03064030229494
5,0.0,0.0,12.89450033564,-0.0234782025218,-14.127304295867951
6,0.0,0.0,12.89449898649,-0.02353254705667,-14.160004490025193
7,0.008000001311302,-5.822628736496e-06,12.89450480912,-0.02441898733377,-14.693393343923924
8,0.01100000739098,-4.760921001434e-06,12.89450374741,-0.02469841390848,-14.861529905724804
9,0.01299999654293,-5.118548870087e-06,12.89450410504,-0.02487245947123,-14.966256603777255
10,0.01399999856949,-6.210058927536e-06,12.89450519655,-0.02492145448923,-14.995737886580947
11,0.1140000075102,-5.368447091314e-06,12.89450435494,-0.02463643811643,-14.82423783140801
12,0.2144999951124,1.764305125107e-06,12.89449722219,-0.02564234472811,-15.429511969546729
13,0.3145000040531,-2.4294036848e-05,12.89452328053,-0.0258537940681,-15.556745268877268
14,0.4150000065565,-3.801974162343e-05,12.89453700623,-0.02518551237881,-15.154626802985753
15,0.4965000003576,0.01029314473271,12.88420584176,-0.001092372345738,-0.6573023006468492
16,0.506500005722,0.02046694234014,12.87403204415,0.02880722470582,17.333883586730526
17,0.5125000029802,0.03049959614873,12.86399939034,0.03109079785645,18.707955249621634
18,0.5174999982119,0.04102816060185,12.85347082589,0.02457910962403,14.789742130290934
19,0.5219999998808,0.05187715962529,12.84262182687,0.02363521046937,14.22177911991513
20,0.526000007987,0.06249867379665,12.8320003127,0.02866380102932,17.24758269043038
21,0.5295000076294,0.0725923627615,12.82190662373,0.03925339877605,23.619555570380765
22,0.5330000072718,0.08354054391384,12.81095844258,0.04843918979168,29.146829847683737
23,0.5359999984503,0.09367237985134,12.80082660664,0.05284897983074,31.80028876153554
24,0.53900000453,0.1044908612967,12.7900081252,0.05742661654949,34.554744381452466
25,0.5419999957085,0.1160188764334,12.77848011006,0.0600368231535,36.125357929729596
26,0.5445000082254,0.1261354535818,12.76836353291,0.05694596469402,34.26552654136044
27,0.5470000058413,0.1365724653006,12.75792652119,0.04737870395184,28.50871429573857
28,0.5495000034571,0.1472383588552,12.74726062764,0.0371171683073,22.334142947752866
29,0.5520000010729,0.1579805463552,12.73651844014,0.0302201975137,18.184097601205146
30,0.5544999986887,0.1687379926443,12.72576099385,0.02207963354886,13.285757357121803
31,0.5569999963045,0.1793275922537,12.71517139424,0.01406876835972,8.465459461868788
32,0.5594999939203,0.1896883100271,12.70481067647,0.01268737111241,7.634245094069454
33,0.5620000064373,0.1998201459646,12.69467884053,0.01824157126248,10.976318473295873
34,0.5649999976158,0.2116914838552,12.68280750264,0.02786223776639,16.765266034490203
35,0.5680000036955,0.2233644574881,12.67113452901,0.03688780963421,22.196133244300043
36,0.570999994874,0.2348543256521,12.65964466084,0.0438915938139,26.410450342774446
37,0.5740000009537,0.2462221235037,12.64827686299,0.04867140948772,29.286561085899482
38,0.5770000070333,0.2574602067471,12.63703877975,0.05041448771954,30.33540613992607
39,0.5799999982119,0.2684999406338,12.62599904586,0.04852430522442,29.198045506867015
40,0.5830000042915,0.2792421281338,12.61525685836,0.04885368049145,29.39623719639457
41,0.58599999547,0.2896409928799,12.60485799361,0.05105857551098,30.72296665332047
42,0.5890000015497,0.2996736466885,12.5948253398,0.05385093390942,32.4031845814713
43,0.5925000011921,0.3108583390713,12.58364064742,0.06465415656567,38.90369984447524
44,0.5960000008345,0.3216463029385,12.57285268355,0.08235435187817,49.554261574820686
45,0.5995000004768,0.3322282731533,12.56227071334,0.1000545471907,60.204823305184185
46,0.6030000001192,0.342764467001,12.55173451949,0.1124980896711,67.69235183195033
47,0.6064999997616,0.3533540666103,12.54114491988,0.1220272034407,73.42621028078543
48,0.609999999404,0.364019960165,12.53047902633,0.1293056458235,77.80579471644582
49,0.6134999990463,0.3747545182705,12.51974446822,0.1349552124739,81.20525202736559
50,0.6169999986887,0.3855653703213,12.50893361617,0.1422412842512,85.58942722237371
51,0.6204999983311,0.3963991105556,12.49809987594,0.1498935669661,90.19395886703536
52,0.6239999979734,0.4072709977627,12.48722798873,0.1581027954817,95.13361594540467
53,0.6274999976158,0.4181657731533,12.47633321334,0.1664112061262,100.13295289553508
54,0.6309999972582,0.4291215837002,12.46537740279,0.1754444092512,105.56841198550448
55,0.6344999969006,0.4401384294033,12.45436055709,0.1834247559309,110.3703462829005
56,0.6379999965429,0.45117816329,12.4433208232,0.1896808594465,114.1347689634386
57,0.6414999961853,0.4622026383877,12.43229634811,0.1936519593,116.52425921370714
58,0.6449999958277,0.4731050431728,12.42139394332,0.1980274170637,119.15705971042799
59,0.64849999547,0.4838167130947,12.4106822734,0.2061222046614,124.02785539834073
60,0.6519999951124,0.4943452775478,12.40015370895,0.2180698364973,131.21698456630133
61,0.6554999947548,0.5047212839127,12.38977770258,0.231062695384,139.0350477674876
62,0.6589999943972,0.5150057077408,12.37949327875,0.2450855225325,147.47286348320407
63,0.6624999940395,0.5252672433853,12.36923174311,0.2598407864571,156.3514010643973
64,0.6660000085831,0.5355516672134,12.35894731928,0.273138821125,164.35309464021458
65,0.6695000082254,0.5458894968033,12.34860948969,0.2858799099922,172.01966278232422
66,0.6730000078678,0.5562959909439,12.33820299555,0.2985370755196,179.63573257142838
67,0.6765000075102,0.5667558908463,12.32774309565,0.3112705349922,187.29770995413008
68,0.6800000071526,0.5772768259048,12.31722216059,0.3228443264961,194.26189191314964
69,0.6835000067949,0.587820649147,12.30667833735,0.3343113064766,201.16180324106034
70,0.6870000064373,0.5983873605728,12.29611162592,0.3480442166328,209.42517010078103
71,0.6905000060797,0.6089769601822,12.28552202631,0.3623569607735,218.03743467243308
72,0.694000005722,0.6195818185806,12.27491716791,0.3758609890938,226.1630787511805
73,0.6975000053644,0.6302019357681,12.26429705072,0.3895023465157,234.37135649854795
74,0.7010000050068,0.6408144235611,12.25368456293,0.4038913846016,243.0295286637976
75,0.7045000046492,0.6514192819595,12.24307970453,0.4191501736641,252.21104739685404
76,0.7080000042915,0.6620317697525,12.23246721674,0.4357517361641,262.2005397784194
77,0.7115000039339,0.6726671457291,12.22183184076,0.4519107937813,271.9237681167337
78,0.7150000035763,0.6833177804947,12.211181206,0.4675663113594,281.3440063368345
79,0.7185000032187,0.6939684152603,12.20053057123,0.4834201931953,290.8836043004576
80,0.722000002861,0.7046114206314,12.18988756586,0.5002048611641,300.9832749068497
81,0.7255000025034,0.715246796608,12.17925218989,0.5176303982735,311.4685693000152
82,0.7290000021458,0.7258592844009,12.16863970209,0.5360019803047,322.52311785458505
83,0.7325000017881,0.7364488840103,12.15805010248,0.5558689236641,334.47745524503955
84,0.7360000014305,0.7470461130142,12.14745287348,0.5752628445625,346.14716555473166
85,0.7395000010729,0.7576280832291,12.13687090326,0.5942905545235,357.5965194148906
86,0.7430000007153,0.7681947946548,12.12630419184,0.614188015461,369.5692198427962
87,0.7465000003576,0.778738617897,12.1157603686,0.6351688504219,382.1938081007262
88,0.75,0.7892595529556,12.10523943354,0.6557529568672,394.5796768716118
89,0.7534999996424,0.7997575998306,12.09474138666,0.6771457791328,407.4521661353419
90,0.7569999992847,0.8102251291275,12.08427385737,0.6990116238594,420.6092824798343
91,0.7604999989271,0.8206545114517,12.07384447504,0.7225711941719,434.7855474036734
92,0.7639999985695,0.8310762643814,12.06342272211,0.7469699978828,449.46679585780805
93,0.7674999982119,0.8414980173111,12.05300096918,0.7721775174141,464.6346648048473
94,0.7709999978542,0.8519579172134,12.04254106928,0.796805202961,479.45363604001545
95,0.7744999974966,0.8624559640884,12.0320430224,0.821707546711,494.4378746123635
96,0.777999997139,0.8729804754257,12.02151851107,0.8465839028358,509.40647591057245
97,0.7814999967813,0.8835242986679,12.01097468783,0.8720813393593,524.7487937135473
98,0.7849999964237,0.8941062688828,12.00039271761,0.8986774086952,540.752180865242
99,0.7884999960661,0.9046958684921,11.989803118,0.9257922768593,557.067739653906
100,0.7919999957085,0.9152854681015,11.97921351839,0.953319132328,573.6311994483096
101,0.7954999953508,0.9259132146835,11.96858577181,0.980647623539,590.0752994992513
102,0.7989999949932,0.9365485906601,11.95795039583,1.008662819862,606.9326037582128
103,0.8024999946356,0.9471992254257,11.94729976107,1.037471413612,624.2673111262234
104,0.805999994278,0.9578727483749,11.93662623812,1.06631052494,641.6203815316248
105,0.8094999939203,0.9685615301132,11.92593745638,1.094051003456,658.312382588547
106,0.8130000084639,0.979257941246,11.91524104525,1.121944069862,675.0961988324237
107,0.8165000081062,0.9899390935898,11.9045598929,1.150874733925,692.5043583505995
108,0.8200000077486,1.000582098961,11.89391688753,1.180873513222,710.5552241798638
109,0.823500007391,1.011186957359,11.88331202913,1.21084177494,728.5877269711352
110,0.8270000070333,1.02176129818,11.87273768831,1.241328835487,746.9324013998572
111,0.8305000066757,1.032343268394,11.8621557181,1.272426247597,765.6443365782022
112,0.8340000063181,1.042894721031,11.85160426546,1.302058815956,783.4748459575721
113,0.8375000059605,1.053438544273,11.84106044222,1.331813454628,801.3788074871073
114,0.8410000056028,1.063982367516,11.83051661898,1.361995339394,819.5398515413186
115,0.8445000052452,1.074503302574,11.81999568392,1.392207741737,837.719258632319
116,0.8480000048876,1.085001349449,11.80949763704,1.423854470253,856.7617284849038
117,0.85150000453,1.095499396324,11.79899959017,1.455409646034,875.749109224714
118,0.8550000041723,1.105989813805,11.78850917269,1.486049294472,894.1855988409922
119,0.8585000038147,1.116480231285,11.77801875521,1.518031716347,913.4300621054783
120,0.8620000034571,1.126963019371,11.76753596712,1.55019724369,932.7847035943099
121,0.8655000030994,1.137476325035,11.75702266146,1.581752419472,951.772084334722
122,0.8690000027418,1.147997260094,11.7465017264,1.613124489784,970.6492868495851
123,0.8725000023842,1.158556342125,11.73594264437,1.644679665565,989.6366675893953
124,0.8760000020266,1.169123053551,11.72537593294,1.676234841347,1008.6240483298074
125,0.8795000016689,1.179705023766,11.71479396273,1.707637429237,1027.5196138820613
126,0.8830000013113,1.190317511559,11.70418147493,1.740321755409,1047.1864270083433
127,0.8865000009537,1.200914740562,11.69358424593,1.773463845253,1067.1286856966924
128,0.890000000596,1.211527228355,11.68297175814,1.80639231205,1086.9424031227034
129,0.8935000002384,1.222132086754,11.67236689974,1.839442849159,1106.8295726982778
130,0.8969999998808,1.232759833336,11.66173915316,1.873073220253,1127.0656399860848
131,0.9004999995232,1.243418097496,11.651080889,1.90615427494,1146.97117259905
132,0.9039999991655,1.25409924984,11.64039973665,1.939784646034,1167.207239886857
133,0.9074999988079,1.264803290367,11.62969569613,1.973415017128,1187.4433071746637
134,0.9109999984503,1.275530219078,11.61896876741,2.007106304169,1207.7160288068114
135,0.9144999980927,1.286249518394,11.6082494681,2.041682720184,1228.5213502555412
136,0.917999997735,1.296976447105,11.59752253939,2.075862407684,1249.0879522175876
137,0.9214999973774,1.307695746422,11.58680324007,2.109523296356,1269.3423825427851
138,0.9249999970198,1.31838452816,11.57611445833,2.144893169403,1290.6251429660851
139,0.9284999966621,1.329035162926,11.56546382357,2.181056499481,1312.3853423633536
140,0.9319999963045,1.339662909508,11.55483607699,2.215816020966,1333.3008420376323
141,0.9354999959469,1.350267767906,11.54423121859,2.250392436981,1354.106163486362
142,0.9389999955893,1.360842108727,11.53365687777,2.284785747528,1374.8013067107463
143,0.9424999952316,1.371408820152,11.52309016634,2.3213763237,1396.818588632691
144,0.945999994874,1.381960272789,11.5125387137,2.357326030731,1418.4502467676214
145,0.9494999945164,1.392504096031,11.50199489046,2.391841411591,1439.218842142171
146,0.9529999941587,1.403017401695,11.4914815848,2.427028179169,1460.391424340524
147,0.9564999938011,1.41351544857,11.48098353792,2.462275981903,1481.6007326136585
148,0.9600000083447,1.423975348473,11.47052363802,2.496852397919,1502.4060540629903
149,0.963500007987,1.434397101402,11.46010188509,2.531154155731,1523.0461081746002
150,0.9670000076294,1.444773077965,11.44972590853,2.566798686981,1544.49413593502
151,0.9705000072718,1.455095648766,11.43940333773,2.603297710419,1566.4563287447918
152,0.9740000069141,1.465402960777,11.42909602572,2.639430522919,1588.1981651046694
153,0.9775000065565,1.475695014,11.41880397249,2.6739153862,1608.9483974412265
154,0.9810000061989,1.485994696617,11.40850428988,2.709834575653,1630.561692538766
155,0.9845000058413,1.49628674984,11.39821223665,2.746425151825,1652.5789744607105
156,0.9880000054836,1.506586432457,11.38791255404,2.783687114716,1675.0002432070598
157,0.991500005126,1.516924262047,11.37757472445,2.819453716278,1696.5217231170432
158,0.9950000047684,1.527246832848,11.36725215365,2.854640483856,1717.6943053153962
159,0.9985000044107,1.537569403648,11.35692958284,2.89120054245,1739.6932241999498
160,1.002000004053,1.547891974449,11.34660701204,2.927913188934,1761.783958271458
161,1.005500003695,1.558206915855,11.33629207064,2.965175151825,1784.2052270178074
162,1.009000003338,1.568529486656,11.32596949984,3.0039935112,1807.5630106747028
163,1.01250000298,1.578874945641,11.31562404085,3.04256772995,1830.7738900318695
164,1.016000002623,1.589243292809,11.30525569368,3.079463481903,1852.9748023283246
165,1.019500002265,1.599626898766,11.29487208773,3.116420269012,1875.2124406995617
166,1.023000001907,1.610018134117,11.28448085238,3.155299663544,1898.6069504318407
167,1.02650000155,1.620417714119,11.27408127237,3.194444417953,1922.1611325124102
168,1.030000001192,1.630831837654,11.26366714884,3.233018636703,1945.372011869577
169,1.033500000834,1.641238331795,11.2532606547,3.271409749985,1968.4727130023982
170,1.037000000477,1.65165245533,11.24284653116,3.310075521469,1991.7386814717372
171,1.040500000119,1.662051320076,11.23244766642,3.349504232407,2015.463725878256
172,1.043999999762,1.672442555428,11.22205643107,3.389451742172,2039.5009419210216
173,1.047499999404,1.682833790779,11.21166519571,3.429399251938,2063.538157964389
174,1.050999999046,1.693232655525,11.20126633097,3.469712972641,2087.795730457049
175,1.054499998689,1.70364677906,11.19085220743,3.509111166,2111.5024118255747
176,1.057999998331,1.714053273201,11.18044571329,3.548204183578,2135.0254628195903
177,1.061499997973,1.724429249763,11.17006973673,3.588609457016,2159.3381244250245
178,1.064999997616,1.734797596931,11.15970138956,3.630174398422,2184.34858145372
179,1.068499997258,1.745181202888,11.1493177836,3.672410726547,2209.76302530682
180,1.071999996901,1.75557243824,11.13892654825,3.713365316391,2234.4062215864938
181,1.075499996543,1.765963673592,11.1285353129,3.75407576561,2258.9025135664388
182,1.078999996185,1.776347279549,11.11815170694,3.795610189438,2283.894607557743
183,1.082499995828,1.7867385149,11.10776047159,3.837693929672,2309.2172362232873
184,1.08599999547,1.797114491463,11.09738449503,3.879289388657,2334.246056289975
185,1.089499995112,1.807475209236,11.08702377726,3.921434164047,2359.6054110303007
186,1.092999994755,1.81783592701,11.07666305948,3.964433431625,2385.4789308199784
187,1.096499994397,1.828211903572,11.06628708292,4.00767660141,2411.4992114485035
188,1.09999999404,1.838587880135,11.05591110636,4.050675868988,2437.372731238181
189,1.103500008583,1.848971486092,11.0455275004,4.094377040863,2463.6686008896545
190,1.107000008225,1.859385609627,11.03511337687,4.138566493988,2490.258279140586
191,1.110500007868,1.869837880135,11.02466110636,4.181046962738,2515.819627293415
192,1.11400000751,1.880320668221,11.01417831827,4.224168300629,2541.766599233258
193,1.117500007153,1.890788197517,11.00371078898,4.267594814301,2567.897201547612
194,1.121000006795,1.901263356209,10.99323563028,4.312028408051,2594.6337840982724
195,1.124500006437,1.911730885506,10.98276810099,4.357163906097,2621.792716510127
196,1.12800000608,1.922221302986,10.97227768351,4.402726650238,2649.2087314472587
197,1.131500005722,1.932749867439,10.96174911905,4.447984218597,2676.4411160092786
198,1.135000005364,1.943316578865,10.95118240763,4.493058681488,2703.5633223469526
199,1.138500005007,1.953936696053,10.94056229044,4.538072109222,2730.648802609244
200,1.142000004649,1.964579701424,10.92991928507,4.583268642426,2757.8444610970832
201,1.145500004292,1.975230336189,10.9192686503,4.627824306488,2784.654495797307
202,1.149000003934,1.985858082771,10.90864090372,4.673173427582,2811.9419694721014
203,1.152500003576,1.996470570564,10.89802841593,4.719071865082,2839.559977821135
204,1.156000003219,2.007037162781,10.88746182371,4.765702724457,2867.6186990693554
205,1.159500002861,2.017580986023,10.87691800047,4.814012050629,2896.687387378287
206,1.163000002503,2.02813243866,10.86636654783,4.862107753754,2925.6275344248807
207,1.166500002146,2.038699150085,10.85579983641,4.908433437347,2953.502625297989
208,1.170000001788,2.0492811203,10.84521786619,4.954270839691,2981.0839075722406
209,1.173500001431,2.059840202332,10.83465878416,5.001084804535,3009.2528070454086
210,1.177000001073,2.070376396179,10.82412259031,5.048051357269,3037.513521705531
211,1.180500000715,2.080874443054,10.81362454344,5.095353603363,3065.976229778156
212,1.184000000358,2.091334342957,10.80316464354,5.143083095551,3094.696020375457
213,1.1875,2.101748466492,10.79275052,5.191087245941,3123.581078309276
214,1.190999999642,2.112132072449,10.78236691404,5.239701747894,3152.8333969927194
215,1.194499999285,2.122515678406,10.77198330809,5.288651943207,3182.287709088665
216,1.197999998927,2.132891654968,10.76160733152,5.336320400238,3210.9707736105825
217,1.201499998569,2.143252372742,10.75124661375,5.384751796722,3240.112914069078
218,1.204999998212,2.15362071991,10.74087826658,5.43296957016,3269.1265132658373
219,1.208499997854,2.1639585495,10.73054043699,5.480882167816,3297.956482087484
220,1.211999997497,2.1742811203,10.72021786619,5.529740810394,3327.3557050706554
221,1.215499997139,2.184580802917,10.70991818358,5.579362392426,3357.214003991006
222,1.218999996781,2.194895744324,10.69960324217,5.631089687347,3388.339352495541
223,1.222499996424,2.205248832703,10.68925015379,5.681718349457,3418.8036316521984
224,1.225999996066,2.215647697449,10.67885128904,5.730973720551,3448.441574122655
225,1.229499995708,2.226069450378,10.66842953611,5.780747890472,3478.3916882293584
226,1.232999995351,2.236498832703,10.65800015379,5.831254482269,3508.7825152358505
227,1.236499994993,2.246973991394,10.6475249951,5.882798671722,3539.7976855160396
228,1.239999994636,2.257464408875,10.63703457762,5.933579921722,3570.3537798596512
229,1.243499994278,2.267970085144,10.62652890135,5.984086513519,3600.7446068661434
230,1.24699999392,2.278483390808,10.61601559568,6.035874843597,3631.9066814460616
231,1.250500008464,2.288996696472,10.60550229002,6.087968349457,3663.2523864010927
232,1.254000008106,2.299510002136,10.59498898436,6.140275478363,3694.726632617859
233,1.257500007749,2.310053825378,10.58444516111,6.193650722504,3726.843585146316
234,1.261000007391,2.320620536804,10.57387844969,6.246293544769,3758.519824774985
235,1.264500007033,2.331202507019,10.56329647947,6.298875331879,3790.159338329473
236,1.268000006676,2.341784477234,10.55271450926,6.350907802582,3821.468317209121
237,1.271500006318,2.352343559265,10.54215542723,6.403398036957,3853.052741650835
238,1.27500000596,2.362879753113,10.53161923338,6.457536220551,3885.628770115869
239,1.278500005603,2.373397827148,10.52110115934,6.511390686035,3918.034079716438
240,1.282000005245,2.383903503418,10.51059548308,6.565132141113,3950.3713886941873
