,time,travel,position,force,stress
0,0.0,0.0,25.32645429035,-0.1603469252586,-81.66401844637721
1,0.0,0.0,25.32645304611,-0.1603552103043,-81.66823798550328
2,0.0,0.0,25.32645056134,-0.1597248911858,-81.34721909451255
3,0.0,0.0,25.326467178,-0.1592437326908,-81.10216708526485
4,0.0,0.0,25.32647069467,-0.1590625345707,-81.00988364048764
5,0.0,0.0,25.3264598384,-0.1578221023083,-80.37813667686646
6,0.0,0.0,25.32645647377,-0.1579301357269,-80.43315764515225
7,0.008000001311302,-6.146728992462e-07,25.32645708844,-0.1588993370533,-80.92676782738515
8,0.01100000739098,4.717148840427e-06,25.32645175662,-0.1591745913029,-81.06695366556399
9,0.01299999654293,-6.053596735001e-09,25.32645647982,-0.1591642051935,-81.06166406348238
10,0.01399999856949,6.048940122128e-07,25.32645586887,-0.1591331511736,-81.0458483810185
11,0.1140000075102,1.510024139861e-05,25.32644137353,-0.1570515930653,-79.98571954175785
12,0.2144999951124,2.131825931428e-05,25.32643515551,-0.157933190465,-80.43471341049134
13,0.3145000040531,3.533291646818e-06,25.32645294048,-0.1587375104427,-80.84435021138259
14,0.4150000065565,0.0008846764103509,25.32557179736,-0.1591044813395,-81.03124695441167
15,0.4424999952316,0.01129260100424,25.31516387276,-0.1198648735881,-61.046678830820106
16,0.4500000029802,0.02131953276694,25.305136941,-0.07717078179121,-39.30275642987872
17,0.4549999982119,0.03216471895576,25.29429175481,-0.07214348763227,-36.74237653940732
18,0.4590000063181,0.04321208223701,25.28324439153,-0.07602303475142,-38.71821366251338
19,0.4625000059605,0.05441966280341,25.27203681097,-0.07462828606367,-38.00787398882907
20,0.465499997139,0.065131329,25.26132514477,-0.06669753044844,-33.968773321252556
21,0.4685000032187,0.07690348476171,25.24955298901,-0.04947035759687,-25.19504623380978
22,0.4710000008345,0.08767618983984,25.23878028393,-0.03048842586577,-15.5276277876099
23,0.4734999984503,0.09948649257421,25.22696998119,-0.01843398250639,-9.388350197636782
24,0.4755000025034,0.109679363668,25.2167771101,-0.01490348018706,-7.5902801313367165
25,0.4775000065565,0.1205283626914,25.20592811108,-0.01648157276213,-8.393996080069543
26,0.4794999957085,0.1319419443607,25.19451452941,-0.02126520313323,-10.830279022421808
27,0.4814999997616,0.1438590586185,25.18259741515,-0.02789514698088,-14.206881696902439
28,0.4835000038147,0.1562186777592,25.17023779601,-0.03528039902449,-17.968159676806607
29,0.4854999929667,0.1689750254154,25.15748144835,-0.04480188339949,-22.817411849137795
30,0.4874999970198,0.1820060312748,25.14445044249,-0.05612390488386,-28.583670041234193
31,0.4895000010729,0.195235401392,25.13122107238,-0.06749170273542,-34.37324194569884
32,0.4909999966621,0.205245167017,25.12121130675,-0.07644861191511,-38.93495833217192
33,0.4925000071526,0.215270191431,25.11118628234,-0.08569543808699,-43.644328230303785
34,0.4944999963045,0.2285605967045,25.09789587706,-0.09646814316511,-49.13082187399646
35,0.4965000003576,0.2417289316654,25.0847275421,-0.1054250523448,-53.69253826046953
36,0.4985000044107,0.2546989023685,25.0717575714,-0.1119939610362,-57.038055985127535
37,0.5004999935627,0.2673942148685,25.0590622589,-0.1127571389079,-57.42673928349363
38,0.5024999976158,0.2798301279545,25.04662634581,-0.1049522683024,-53.451751324908166
39,0.5045000016689,0.2920829355717,25.0343735382,-0.09051745384932,-46.10016069187772
40,0.506500005722,0.3042289316654,25.0222275421,-0.07449572533369,-37.940361363433276
41,0.508499994874,0.3163138926029,25.01014258117,-0.05948107689619,-30.293463707064863
42,0.5104999989271,0.3284293711185,24.99802710265,-0.04822009056807,-24.558290464791103
43,0.5125000029802,0.3405753672123,24.98588110656,-0.04139941185713,-21.08454732211028
44,0.5145000070333,0.3527671396732,24.9736893341,-0.03996699303389,-20.35502240596141
45,0.5164999961853,0.3649894297123,24.96146704406,-0.04372446984053,-22.268689629417107
46,0.5185000002384,0.3771659433842,24.94929053038,-0.0528721138835,-26.927546484085283
47,0.5205000042915,0.3892203867435,24.93723608702,-0.06423991173506,-32.71711838854993
48,0.5224999934435,0.4010001718998,24.92545630187,-0.07115214318037,-36.237488955962164
49,0.5244999974966,0.4124900400639,24.9139664337,-0.07280724495649,-37.08042536872912
50,0.5265000015497,0.4236924350262,24.90276403874,-0.06865883618593,-34.96765813096785
51,0.5285000056028,0.4345872104168,24.89186926335,-0.05996132642031,-30.53805278124479
52,0.5304999947548,0.4452531039715,24.8812033698,-0.04853249341249,-24.71739592695242
53,0.5324999988079,0.4557358920574,24.87072058171,-0.03656960278749,-18.624745761715804
54,0.534500002861,0.4660660922527,24.86039038152,-0.02558327466249,-13.029454793641355
55,0.5365000069141,0.4763047397137,24.85015173405,-0.01493264082819,-7.605131523911335
56,0.5384999960661,0.4864976108074,24.83995886296,-0.003717430634424,-1.8932718754234243
57,0.5405000001192,0.4966904819012,24.82976599187,0.008077613078058,4.113894559221346
58,0.5425000041723,0.5069443583488,24.81951211542,0.01878928393126,9.569303727414876
59,0.5444999933243,0.5172898173332,24.80916665644,0.02710532397032,13.804628140747731
60,0.5464999973774,0.527742087841,24.79871438593,0.03313254565001,16.874266935734287
61,0.5485000014305,0.5383011698723,24.7881553039,0.03688620775938,18.785991349823846
62,0.5505000054836,0.548967063427,24.77748941034,0.03765343874693,19.176738883141795
63,0.5524999946356,0.559709250927,24.76674722284,0.03503846377134,17.84494306417617
64,0.5544999986887,0.570466697216,24.75598977655,0.03021668642759,15.389232028187944
65,0.5565000027418,0.581208884716,24.74524758905,0.02513550966978,12.801409955454785
66,0.5585000067949,0.5918747782707,24.7345816955,0.02137803286314,10.887742731999086
67,0.5604999959469,0.602433860302,24.72402261347,0.02042061835527,10.400135527149791
68,0.5625,0.6128861308098,24.71357034296,0.02175766974688,11.081090209206204
69,0.5645000040531,0.6232163310051,24.70324014276,0.02545792609453,12.965615292200319
70,0.5664999932051,0.6334244608879,24.69303201288,0.03077561408281,15.673891545496826
71,0.5684999972582,0.6435257792473,24.68293069452,0.0370469763875,18.867870139773927
72,0.5705000013113,0.6535660624504,24.67289041132,0.04281479865313,21.80539789801556
73,0.5729999989271,0.6660324931145,24.66042398065,0.04961258918047,25.267484184509712
74,0.5754999965429,0.6784378886223,24.64801858515,0.05673081427813,28.892766457576524
75,0.5779999941587,0.690828025341,24.63562844843,0.06351334601641,32.347081506616284
76,0.5805000066757,0.7031876444817,24.62326882929,0.06974656134844,35.521632007252336
77,0.5830000042915,0.7155625224113,24.61089395136,0.07557541877031,38.490244715311505
78,0.5855000019073,0.727937400341,24.59851907343,0.08170182257891,41.61039655376176
79,0.5879999995232,0.7403427958488,24.58611367792,0.08724076300859,44.43135575016214
80,0.590499997139,0.7527634501457,24.57369302362,0.09108597785234,46.389707588988195
81,0.5929999947548,0.7651841044426,24.56127236933,0.09408432990313,47.91675574902963
82,0.5955000072718,0.7776047587395,24.54885171503,0.09714371711016,49.47488885888862
83,0.5980000048876,0.7900254130363,24.53643106073,0.1004815772176,51.174847052323244
84,0.6005000025034,0.8024308085442,24.52402566522,0.1049218848348,53.43627715192637
85,0.6030000001192,0.814836204052,24.51162026972,0.1088967993855,55.46068450908414
86,0.605499997735,0.8272110819817,24.49924539179,0.1132913306355,57.69880089631392
87,0.6079999953508,0.8395554423332,24.48690103144,0.1178804114461,60.03600056113041
88,0.6104999929667,0.8518998026848,24.47455667108,0.1217370703816,62.000180828024334
89,0.6130000054836,0.8642136454582,24.46224282831,0.1262193322182,64.28297803611089
90,0.6155000030994,0.8765122294426,24.44994424433,0.1318803429604,67.16610713216672
91,0.6180000007153,0.888810813427,24.43764566034,0.1376863121986,70.12306298400357
92,0.6204999983311,0.9011399149895,24.42531655878,0.1429582238197,72.80802552493692
93,0.6229999959469,0.913469016552,24.41298745722,0.1479554772377,75.35310579168114
94,0.6254999935627,0.9258286356926,24.40062783808,0.152857363224,77.84961582429726
95,0.6280000060797,0.9382035136223,24.38825296015,0.157366335392,80.1460164924604
96,0.6305000036955,0.9506241679192,24.37583230585,0.1615968346596,82.30059207705298
97,0.6330000013113,0.9630753397942,24.36338113397,0.166025698185,84.55619374856276
98,0.6354999989271,0.9755570292473,24.35089944452,0.1701722741127,86.66802752712059
99,0.6379999965429,0.9880539774895,24.33840249628,0.1743760704994,88.80900344614507
100,0.640000000596,0.9980790019035,24.32837747186,0.1781983971596,90.75569842880992
101,0.6420000046492,1.008119344711,24.31833712906,0.182138979435,92.76262050173861
102,0.6439999938011,1.018159627914,24.30829684585,0.1856675744057,94.55971916335817
103,0.6459999978542,1.028230428696,24.29822604507,0.1887002587318,96.10425260763377
104,0.6480000019073,1.038285970688,24.28817050308,0.1914544701576,97.50696096838976
105,0.6500000059605,1.048356771469,24.2780997023,0.1941972374916,98.90384090105242
106,0.6519999951124,1.058442831039,24.26801364273,0.1971727013588,100.41923220491228
107,0.6539999991655,1.068513631821,24.25794284195,0.2006822228432,102.20661681972658
108,0.6560000032187,1.078584432602,24.24787204117,0.2042108178139,104.0037154813461
109,0.6580000072718,1.088670492172,24.2377859816,0.2075830101967,105.72115895904037
110,0.6599999964237,1.098741292953,24.22771518082,0.2109094262123,107.41528872436129
111,0.6620000004768,1.108827352524,24.21762912124,0.2143426537514,109.16381715190364
112,0.66400000453,1.118913412094,24.20754306167,0.2180390954018,111.04639942554181
113,0.6659999936819,1.128984212875,24.19747226089,0.2213044762611,112.70944424101462
114,0.667999997735,1.139070272446,24.18738620132,0.2240357995033,114.10049574558394
115,0.6700000017881,1.149141073227,24.17731540054,0.2268128991127,115.51486096252661
116,0.6720000058413,1.159196615219,24.16725985855,0.2298455834389,117.05939440685314
117,0.6739999949932,1.169236898422,24.15721957535,0.2333322167397,118.83512216548077
118,0.6759999990463,1.179261922836,24.14719455093,0.2373452782631,120.87895761629997
119,0.6780000030994,1.18928694725,24.13716952652,0.2410035729408,122.7421117962767
120,0.6800000071526,1.199296712875,24.12715976089,0.244280397892,124.41098503989379
121,0.6819999963045,1.209321737289,24.11713473648,0.2474580407143,126.02934524005227
122,0.6844999939203,1.221818685532,24.10463778824,0.2517572045326,128.21889139315394
123,0.6870000064373,1.234315633774,24.09214083999,0.2571130394936,130.94659574012206
124,0.6895000040531,1.246812582016,24.07964389175,0.2626138329506,133.7481268428712
125,0.6920000016689,1.259309530258,24.06714694351,0.2678552269936,136.41754690890596
126,0.694000005722,1.269334554672,24.0571219191,0.2720666527748,138.56240844664237
127,0.695999994874,1.279374837875,24.04708163589,0.2766290307045,140.88600844589078
128,0.6979999989271,1.289430379868,24.0370260939,0.280901491642,143.06195493347528
129,0.7000000029802,1.299516439438,24.02694003433,0.2844110131264,144.84933954828955
130,0.7020000070333,1.309617757797,24.01683871597,0.2879701256752,146.66198068480767
131,0.7039999961853,1.319734334946,24.00672213882,0.2912316918373,148.32308269095003
132,0.7060000002384,1.329881429672,23.9965750441,0.2941957116127,149.83264556671654
133,0.7080000042915,1.340028524399,23.98642794937,0.2974191308022,151.47431947924838
134,0.7099999934435,1.350190877914,23.97626559585,0.3010774254799,153.3374736592251
135,0.7119999974966,1.360337972641,23.96611850113,0.3047090172768,155.18702817368467
136,0.7140000015497,1.370500326157,23.95595614761,0.3074632287025,156.58973653438971
137,0.7160000056028,1.380647420883,23.94580905289,0.3105798363686,158.17701178475102
138,0.7179999947548,1.390779256821,23.93567721695,0.3146539330482,160.2519321853674
139,0.7199999988079,1.400926351547,23.92553012222,0.3188653588295,162.39679372315476
140,0.722000002861,1.411058187485,23.91539828628,0.3225999474525,164.2988040904034
141,0.7240000069141,1.421205282211,23.90525119156,0.32593780756,165.9987622838686
142,0.7259999960661,1.431337118149,23.89511935562,0.3291497826576,167.63460776825613
143,0.7280000001192,1.441468954086,23.88498751968,0.3331170678139,169.65512950675293
144,0.7300000041723,1.451585531235,23.87487094253,0.3376184105873,171.94764455615322
145,0.7319999933243,1.461717367172,23.8647391066,0.3419824242592,174.17021846848442
146,0.7339999973774,1.471833944321,23.85462252945,0.3461251854897,176.28010943771173
147,0.7360000014305,1.481965780258,23.84449069351,0.3493981957436,177.9470398719474
148,0.7380000054836,1.492082357407,23.83437411636,0.3526330590248,179.59454221252165
149,0.7399999946356,1.502198934555,23.82425753921,0.3560281395912,181.32364254640257
150,0.7419999986887,1.512300252914,23.81415622085,0.3594880700111,183.08577063946208
151,0.7440000027418,1.522401571274,23.80405490249,0.363062441349,184.90618301345498
152,0.7460000067949,1.532472372055,23.79398410171,0.366896212101,186.85870642421315
153,0.7479999959469,1.542558431625,23.78389804214,0.3711305260658,189.01522481813623
154,0.75,1.552613973618,23.77384250015,0.375799715519,191.39322347960606
155,0.7520000040531,1.56266951561,23.76378695816,0.3801332116127,193.60025491698775
156,0.7539999932051,1.572740316391,23.75371615738,0.3840394616127,195.58969170563643
157,0.7559999972582,1.582811117172,23.7436453566,0.388006746769,197.61021344413322
158,0.7580000013113,1.592897176743,23.73355929703,0.3921037316322,199.6967907009363
159,0.7600000053644,1.602967977524,23.72348849624,0.3958230614662,201.5910298307611
160,0.7619999945164,1.613069295883,23.71338717789,0.399366915226,203.39589972985542
161,0.7639999985695,1.623155355453,23.70330111832,0.4037080407143,205.60681678599994
162,0.7660000026226,1.633271932602,23.69318454117,0.4076600670815,207.61956728702197
163,0.7680000066757,1.64338850975,23.68306796402,0.4109292626381,209.2845549118762
164,0.7699999958277,1.653520345688,23.67293612808,0.4147668480873,211.2390211319649
165,0.7719999998808,1.663652181625,23.66280429214,0.4191690087318,213.4810231379066
166,0.7740000039339,1.673799276352,23.65265719742,0.4227586388588,215.30920674937423
167,0.776000007987,1.683966636658,23.64248983711,0.4257315695286,216.82330790639236
168,0.777999997139,1.694113731384,23.63234274238,0.4289015829563,218.43778248778798
169,0.7800000011921,1.704260826111,23.62219564766,0.4326514303684,220.3475640925114
170,0.7820000052452,1.714407920837,23.61204855293,0.4363249838352,222.2184895099629
171,0.7839999943972,1.724555015564,23.6019014582,0.43962469697,223.89901960976664
172,0.7859999984503,1.734702110291,23.59175436348,0.4433363974094,225.78937312082863
173,0.7880000025034,1.744833946228,23.58162252754,0.4468001425266,227.55344402326958
174,0.7900000065565,1.754965782166,23.5714906916,0.450481325388,229.42825505948392
175,0.7919999957085,1.765082359314,23.56137411445,0.4546240866184,231.5381460286603
176,0.7939999997616,1.775198936462,23.55125753731,0.4589194357395,233.7257493724315
177,0.7960000038147,1.785315513611,23.54114096016,0.4628409445286,235.7229573985549
178,0.7979999929667,1.79541683197,23.5310396418,0.4663352072239,237.50257077589444
179,0.7999999970198,1.80551815033,23.52093832344,0.469524294138,239.1267594041463
180,0.8020000010729,1.815619468689,23.51083700508,0.472885042429,240.8383744537472
181,0.804000005126,1.82569026947,23.5007662043,0.4765662252903,242.71318548991061
182,0.805999994278,1.835745811462,23.49071066231,0.4804228842258,244.67736575680453
183,0.8079999983311,1.845801353455,23.48065512031,0.4844664633274,246.73674368257326
184,0.8100000023842,1.855841636658,23.47061483711,0.4888152182102,248.9515463574297
185,0.8120000064373,1.865866661072,23.4605898127,0.4934310019016,251.30234568776334
186,0.8139999955893,1.875891685486,23.45056478828,0.497787386179,253.5210339813826
187,0.8159999996424,1.885901451111,23.44055502266,0.5020064711571,255.66979631606858
188,0.8180000036955,1.895926475525,23.43052999824,0.5057448744774,257.5737494926987
189,0.8205000013113,1.908423423767,23.41803305,0.5097159743309,259.596214040526
190,0.8229999989271,1.92090511322,23.40555136055,0.51359552145,261.57205116360655
191,0.8254999965429,1.933371543884,23.39308492988,0.5183410048485,263.98890601234837
192,0.8279999941587,1.945822715759,23.38063375801,0.5230636000633,266.3941040048525
193,0.8305000066757,1.958258628845,23.36819784492,0.5272826552391,268.54285116135173
194,0.8330000042915,1.970679283142,23.35577719063,0.5325011610985,271.20061437119983
195,0.8355000019073,1.98308467865,23.34337179512,0.5377578139305,273.8778056746585
196,0.8379999995232,1.995474815369,23.3309816584,0.5428847670555,276.48894145975987
197,0.840499997139,2.007880210876,23.31857626289,0.5475005507469,278.83974079009346
198,0.8429999947548,2.020270347595,23.30618612617,0.5517920851707,281.02540132448325
199,0.8455000072718,2.032660484314,23.29379598945,0.5556945204735,283.01289530380143
200,0.8480000048876,2.045035362244,23.28142111152,0.5601844191551,285.2995819251084
201,0.8505000025034,2.057394981384,23.26906149238,0.5652655959129,287.8874039978365
202,0.8530000001192,2.069754600525,23.25670187324,0.5709189772606,290.76664747518043
203,0.855499997735,2.082129478455,23.24432699531,0.5764197707176,293.56817857792953
204,0.8579999953508,2.094504356384,23.23195211738,0.5811995863914,296.0025187109004
205,0.8604999929667,2.106894493103,23.21956198067,0.5854949355125,298.1901220546716
206,0.8630000054836,2.119284629822,23.20717184395,0.5892218947411,300.0882468032592
207,0.8655000030994,2.131674766541,23.19478170723,0.5929793715477,302.0019140266945
208,0.8680000007153,2.144064903259,23.18239157051,0.5974807143211,304.29442907609484
209,0.8704999983311,2.156439781189,23.17001669258,0.6019935011864,306.5927725536394
210,0.8729999959469,2.16879940033,23.15765707344,0.6064185500145,308.84643141576777
211,0.8754999935627,2.181143760681,23.14531271309,0.6111754775047,311.26911469255197
212,0.8780000060797,2.193472862244,23.13298361152,0.615947663784,313.69956920681085
213,0.8805000036955,2.205786705017,23.12066976875,0.6205176711082,316.0270548247712
214,0.8830000013113,2.218085289001,23.10837118477,0.6252517104149,318.4380812454196
215,0.8854999989271,2.230368614197,23.09608785957,0.6305541396141,321.13858626125153
216,0.8879999965429,2.242651939392,23.08380453438,0.6360854506493,323.95565983895017
217,0.8904999941587,2.254920005798,23.07153646797,0.6413497328758,326.6367367611207
218,0.8930000066757,2.267203330994,23.05925314277,0.646392762661,329.20513074023825
219,0.8955000042915,2.279486656189,23.04696981758,0.6520003676414,332.0610605051579
220,0.8980000019073,2.291800498962,23.03465597481,0.6571425795555,334.6799675277341
221,0.9004999995232,2.304114341736,23.02234213203,0.6615180373192,336.9083698681586
222,0.902999997139,2.316443443298,23.01001303047,0.6651687026024,338.7676384294234
223,0.9054999947548,2.328757286072,22.9976991877,0.6694182753563,340.9319280608213
224,0.9080000072718,2.341071128845,22.98538534492,0.6740760207176,343.3040982941468
225,0.9105000048876,2.35336971283,22.97308676094,0.6787032485008,345.6607260525738
226,0.9130000025034,2.365637779236,22.96081869453,0.6840285658836,348.3728879245924
227,0.9155000001192,2.377905845642,22.94855062813,0.689361512661,351.08893541537384
228,0.917999997735,2.390158653259,22.93629782051,0.6942252516747,353.5660173543795
229,0.9204999953508,2.402426719666,22.9240297541,0.6988486647606,355.92070230342506
230,0.9229999929667,2.414710044861,22.91174642891,0.703464448452,358.2715016337587
231,0.9255000054836,2.426993370056,22.89946310371,0.7080611586571,360.6125869172871
232,0.9280000030994,2.439276695251,22.88717977852,0.7130050063133,363.13046785289515
233,0.9305000007153,2.451590538025,22.87486593574,0.718055665493,365.70274745072464
234,0.9329999983311,2.463919639587,22.86253683418,0.7227210402489,368.07880330281307
235,0.9354999959469,2.476279258728,22.85017721504,0.7272109389305,370.36548992412
236,0.9379999935627,2.488638877869,22.8378175959,0.7317771315575,372.6910327327498
