,time,travel,position,force,stress
0,0.0,0.0,24.14614710244,-0.007535519078374,-4.955847562340932
1,0.0,0.0,24.14614958348,-0.00740915723145,-4.872743791447643
2,0.0,0.0,24.14615312996,-0.006508527323604,-4.28043097438116
3,0.0,0.0,24.14614760908,-0.006749598309398,-4.438974937295008
4,0.0,0.0,24.14615595373,-0.006883112713695,-4.526782695219955
5,0.0,0.0,24.25310646496,-0.008337803184986,-5.483481782718474
6,0.0,0.0,24.25310599841,-0.008639641106129,-5.681990035456036
7,0.008000001311302,-8.7502412498e-06,24.25311474865,-0.008545510470867,-5.620083606124105
8,0.01100000739098,-6.783287972212e-06,24.2531127817,-0.008311621844769,-5.466263230188282
9,0.01299999654293,-6.731599569321e-06,24.25311273001,-0.008103720843792,-5.329534007133562
10,0.01399999856949,-4.69945371151e-06,24.25311069786,-0.007986180484295,-5.252231820246182
11,0.1140000075102,3.737340739463e-05,24.253068625,-0.009129396639764,-6.004085134979257
12,0.2144999951124,1.434971727576e-05,24.25309164869,-0.01008387934417,-6.631815054408742
13,0.3145000040531,5.29748176632e-05,24.25305302359,-0.00817609205842,-5.377130025917078
14,0.4150000065565,3.557395757525e-05,24.25307042445,-0.01132025569677,-7.444936575227825
15,0.515000000596,0.01006213482469,24.24304386358,-0.0008826535777189,-0.5804904129409478
16,0.5339999943972,0.02034560590982,24.2327603925,0.01402995176613,9.227008987274615
17,0.5445000082254,0.03074637800455,24.2223596204,0.02774259634316,18.24533612486386
18,0.5520000010729,0.04079429060221,24.21231170781,0.02335187979043,15.357715285680447
19,0.5590000003576,0.05139552429318,24.20171047412,0.02049927227199,13.481655007743127
20,0.5655000060797,0.06181727722287,24.19128872119,0.02053399197757,13.50448894479169
21,0.5719999969006,0.07245264947414,24.18065334893,0.02319665066898,15.25562651712433
22,0.5785000026226,0.08309565484524,24.17001034356,0.02370053343475,15.587012603533882
23,0.5850000083447,0.09338389337063,24.15972210504,0.02585691027343,17.005186293801636
24,0.5920000076294,0.1036645025015,24.14944149591,0.02332585863769,15.340602082855982
25,0.5999999940395,0.1139985173941,24.13910748101,0.04014104604721,26.399363220218422
26,0.6085000038147,0.1242676824331,24.12883831598,0.05650228261948,37.159576755642675
27,0.6169999986887,0.1346436589956,24.11846233941,0.06840413808823,44.98701117637354
28,0.625,0.1447335332632,24.10837246515,0.07907003164291,52.00159663802358
29,0.6330000013113,0.1551591008902,24.09794689752,0.08906835317612,58.57714331005874
30,0.6404999941587,0.1651764959097,24.0879295025,0.09587091207504,63.05094857632684
31,0.64849999547,0.175808057189,24.07729794122,0.1001405119896,65.85891523511592
32,0.6564999967813,0.1859856694937,24.06712032891,0.1073750853539,70.61684131812959
33,0.6650000065565,0.1960259526968,24.05708004571,0.1163758635521,76.53633859877957
34,0.6745000034571,0.2061654180288,24.04694058038,0.1267823576927,83.3803261307355
35,0.6854999959469,0.2164803594351,24.03662563897,0.1412248015404,92.87861674515116
36,0.6975000053644,0.2268048375845,24.02630116082,0.1602143645287,105.36738871516292
37,0.7090000063181,0.2369862645864,24.01611973382,0.176045358181,115.77888001193963
38,0.7199999988079,0.2473813146353,24.00572468377,0.1870927214622,123.04434478191847
39,0.730499997735,0.2578336000443,23.99527239836,0.1985616087914,130.58703118772917
40,0.7405000030994,0.2681332826614,23.98497271575,0.2100285887718,138.1284631968881
41,0.75,0.278150677681,23.97495532073,0.223143517971,146.75369381818112
42,0.7594999969006,0.2883931398392,23.96471285857,0.2359418272972,155.17069461356888
43,0.7690000087023,0.2988377809525,23.95426821746,0.2505978941917,164.80947764061497
44,0.777999997139,0.308870434761,23.94423556365,0.2619122862816,172.25055792651347
45,0.7874999940395,0.3193341493607,23.93377184905,0.2739591002464,180.1733264843911
46,0.7970000058413,0.3294049501419,23.92370104827,0.285456597805,187.7348288382679
47,0.8069999963045,0.3394261598587,23.91367983855,0.2994450926781,196.9345730757452
48,0.8174999952316,0.3494721055031,23.90363389291,0.3137547969818,206.34556553077502
49,0.8285000026226,0.3598118424416,23.89329415597,0.3310391902924,217.7129069924547
50,0.8390000015497,0.3699265122414,23.88317948617,0.3461034297943,227.62013087942816
51,0.8495000004768,0.3804093003273,23.87269669808,0.361781835556,237.93127045287864
52,0.8595000058413,0.3906288743019,23.86247712411,0.3738210201263,245.84902142460967
53,0.8694999963045,0.4008789658546,23.85222703255,0.3874700069427,254.82548307761041
54,0.8795000016689,0.4110222458839,23.84208375252,0.4009816646576,263.71162817964375
55,0.890000000596,0.4214859604836,23.83162003792,0.4155232906342,273.2751474142281
56,0.9004999995232,0.4317627549171,23.82134324349,0.4325368404388,284.46436456688195
57,0.9109999984503,0.4420834183693,23.81102258004,0.4483983516693,294.8959262083765
58,0.9214999973774,0.452505171299,23.80060082711,0.463588476181,304.88594026713037
59,0.9319999963045,0.4629879593849,23.79011803902,0.4789807796478,315.0089203593276
60,0.9420000016689,0.4730167984962,23.78008919991,0.4946858882904,325.33762148438973
61,0.9520000070333,0.4831181168556,23.76998788155,0.5077588558197,333.93525538177795
62,0.9619999974966,0.4931851029396,23.75992089547,0.5236127376556,344.36179943706014
63,0.9724999964237,0.5036678910255,23.74943810738,0.5406301021576,355.55352538288594
64,0.9829999953508,0.5141125321388,23.73899346627,0.5577428340912,366.8079711557742
65,0.993499994278,0.524526655674,23.72857934273,0.5733296871185,377.0588996952026
66,1.004000008106,0.5350132584572,23.71809273995,0.5899999141693,388.0223254704053
67,1.013999998569,0.5450764298439,23.70802956856,0.6047475337982,397.7213195314735
68,1.024000003934,0.5551930069923,23.69791299142,0.6186521053314,406.8658703210753
69,1.033999994397,0.5652638077736,23.68784219063,0.6338422298431,416.8558843798291
70,1.043999999762,0.5752659440041,23.6778400544,0.6505963802338,427.8745036029072
71,1.054499998689,0.5856533646584,23.66745263375,0.6682279109955,439.47014523514434
72,1.064999997616,0.5960522890091,23.6570537094,0.6849350333214,450.45783574344165
73,1.075499996543,0.6065427064896,23.64656329192,0.7020859122276,461.7373694471286
74,1.085500001907,0.616659283638,23.63644671477,0.7160591483116,470.9270785122469
75,1.095500007272,0.6267606019974,23.62634539641,0.7311844229698,480.87444308859034
76,1.105499997735,0.6368161439896,23.61628985442,0.7466072440147,491.0174935254397
77,1.115999996662,0.6472607851028,23.60584521331,0.764604985714,502.853979293765
78,1.126499995589,0.6575947999954,23.59551119841,0.7832779288292,515.1345214378057
79,1.136999994516,0.6679822206497,23.58512377776,0.801428258419,527.0713589293915
80,1.146999999881,0.6780148744583,23.57509112395,0.8167213797569,537.1291104014201
81,1.157000005245,0.688120007515,23.56498599089,0.8326477408409,547.6033215253251
82,1.166999995708,0.6982289552689,23.55487704314,0.8476433157921,557.4653871368478
83,1.177000001073,0.7083302736282,23.54477572478,0.8634476065636,567.8593168820786
84,1.187000006437,0.7183667421341,23.53473925627,0.879309117794,578.2908785235073
85,1.196999996901,0.7283688783646,23.52473712004,0.8962883353233,589.4575165384688
86,1.207000002265,0.7384053468704,23.51470065154,0.910845220089,599.031070945412
87,1.217000007629,0.7484265565872,23.50467944182,0.9279732108116,610.2955518905934
88,1.227500006557,0.7589055299759,23.49420046843,0.9446358084679,621.2539600796495
89,1.238000005484,0.7693082094193,23.48379778899,0.9613060355186,632.2173858547865
90,1.248500004411,0.7796956300735,23.47341036833,0.9793075919151,644.0563804161521
91,1.259000003338,0.7901250123978,23.46298098601,0.998205602169,656.4849413521418
92,1.269000008702,0.8001729249954,23.45293307341,1.014292120934,667.064482585986
93,1.278999999166,0.8102818727493,23.44282412566,1.030546545982,677.7544499145229
94,1.28900000453,0.8203336000443,23.43277239836,1.047045111656,688.6049800010657
95,1.299500003457,0.8307591676712,23.42234683074,1.063131690025,699.1845604343778
96,1.310000002384,0.8410919904709,23.41201400794,1.080428600311,710.560133873361
97,1.320500001311,0.8514050245285,23.40170097388,1.09733915329,721.6816136131347
98,1.331000000238,0.8617199659348,23.39138603247,1.115947246552,733.9195062749623
99,1.341499999166,0.8721607923508,23.38094520606,1.134055614471,745.8287470420513
100,1.35150000453,0.8821629285812,23.37094306983,1.151072978973,757.0204729878773
101,1.361499994993,0.8922146558762,23.36089134253,1.167640209198,767.9161613500681
102,1.371500000358,0.9022282361984,23.35087776221,1.183539867401,778.3728109222956
103,1.381999999285,0.9126652479172,23.34044075049,1.19996213913,789.1731651473725
104,1.392499998212,0.922966837883,23.33013916053,1.217658519745,800.8114562618886
105,1.402999997139,0.9332646131516,23.31984138526,1.236648082733,813.3002282317029
106,1.413499996066,0.9436749219894,23.30943107642,1.25460767746,825.1116260694268
107,1.423500001431,0.9537113904953,23.29939460791,1.272277355194,836.7323556322654
108,1.433500006795,0.9638775587082,23.2892284397,1.289035320282,847.7534836484497
109,1.443499997258,0.9741657972336,23.27894020117,1.306037425995,858.9351744219823
110,1.453500002623,0.984454035759,23.26865196265,1.321620464325,869.1835941683046
111,1.463500007987,0.9945324659348,23.25857353247,1.339381694794,880.8645347655596
112,1.474000006914,1.004885554314,23.24822044409,1.358638286591,893.528922251491
113,1.484500005841,1.015231013298,23.23787498511,1.377746105194,906.095466806742
114,1.495000004768,1.025645136833,23.22746086158,1.396300792694,918.2982363652147
115,1.504999995232,1.035670161247,23.21743583716,1.412757396698,929.1211697277869
116,1.515000000596,1.045801997185,23.20730400122,1.429114818573,939.8788744701247
117,1.52500000596,1.055987238884,23.19711875952,1.446673870087,951.4268490340021
118,1.534999996424,1.066042780876,23.18706321753,1.463756084442,962.6612244619093
119,1.545499995351,1.076392054558,23.17671394385,1.482974529266,975.300524016779
120,1.555999994278,1.086691737175,23.16641426123,1.502254009247,987.979964261479
121,1.566500008106,1.097088456154,23.15601754225,1.522101998329,1001.0332930748439
122,1.577000007033,1.107548356056,23.14555764235,1.53949701786,1012.4733895357476
123,1.58750000596,1.118038773537,23.13506722487,1.556602120399,1023.7228177224234
124,1.598000004888,1.128494858742,23.12461113967,1.573699593544,1034.9672283232817
125,1.608500003815,1.138840317726,23.11426568068,1.59199488163,1046.999399952113
126,1.619000002742,1.149071335793,23.10403466262,1.60912668705,1058.2663896904664
127,1.629500001669,1.159317612648,23.09378838576,1.627257943153,1070.190683216324
128,1.640000000596,1.16959631443,23.08350968398,1.644759774208,1081.7010258839375
129,1.650499999523,1.179905533791,23.07320046462,1.662994027138,1093.6930568235962
130,1.66099999845,1.190342545509,23.0627634529,1.680759072304,1105.3765062137602
131,1.671000003815,1.200440049171,23.05266594924,1.698348641396,1116.9445511222239
132,1.680999994278,1.210590958595,23.04251503981,1.716971993446,1129.192478955687
133,1.690999999642,1.2207685709,23.03233742751,1.734157204628,1140.4945917973953
134,1.701000005007,1.230915665627,23.02219033278,1.750751137733,1151.4078417106061
135,1.711500003934,1.24140226841,23.01170373,1.768806099892,1163.2819593756556
136,1.722000002861,1.251770615578,23.00133538283,1.78896677494,1176.5409308217656
137,1.732500001788,1.262211441994,22.99089455641,1.807231545448,1188.5530321060105
138,1.742500007153,1.272240281105,22.9808657173,1.824721932411,1200.0558483942398
139,1.752499997616,1.282326340675,22.97077965773,1.842498421669,1211.746824163788
140,1.76250000298,1.292442917824,22.96066308058,1.859183907509,1222.7202851114155
141,1.772500008345,1.30247938633,22.95062661208,1.875220894814,1233.267251234939
142,1.783000007272,1.3128439188,22.94026207961,1.894252419472,1245.7836199287242
143,1.793500006199,1.323195099831,22.92991089858,1.913680672646,1258.560903103447
144,1.804000005126,1.333632111549,22.91947388686,1.933349251747,1271.4962402419515
145,1.813999995589,1.343713402748,22.90939259566,1.952438354492,1284.0504760314384
146,1.824000000954,1.353887200356,22.89921879805,1.970539093018,1295.9546992133673
147,1.834000006318,1.363992333412,22.889113665,1.987865447998,1307.349637398623
148,1.844500005245,1.374459862709,22.8786461357,2.00728225708,1320.1193941939614
149,1.855000004172,1.384801506996,22.86830449141,2.02583694458,1332.322163752434
150,1.865500003099,1.395068764687,22.85803723372,2.044544219971,1344.6252850344963
151,1.876000002027,1.405347466469,22.84775853194,2.062961578369,1356.7377380416726
152,1.886500000954,1.415814995766,22.83729100264,2.082290649414,1369.4497925961612
153,1.896500006318,1.425981163979,22.82712483443,2.099033355713,1380.4608854400522
154,1.906499996781,1.436185479164,22.81692051924,2.116188049316,1391.7429279365165
155,1.916500002146,1.446302056313,22.8068039421,2.133884429932,1403.38121905169
156,1.92650000751,1.456334710121,22.79677128829,2.153465270996,1416.2588539493447
157,1.937000006437,1.466735482216,22.78637051619,2.171817779541,1428.3286574744398
158,1.947500005364,1.476951241493,22.77615475692,2.190162658691,1440.3934434130592
159,1.958000004292,1.487064003944,22.76604199446,2.209064483643,1452.8245131426813
160,1.968500003219,1.497230172157,22.75587582625,2.2272605896,1464.7914561512782
161,1.979000002146,1.507541298866,22.74556469954,2.246101379395,1477.18238519107
162,1.98900000751,1.517581582069,22.73552441634,2.264854431152,1489.5156119893536
163,1.998999997973,1.52782022953,22.72528576888,2.28243637085,1501.0786393119997
164,2.009000003338,1.538108468056,22.71499753035,2.300384521484,1512.8825107696816
165,2.019000008702,1.548282265663,22.70482373275,2.319259643555,1525.2960189476262
166,2.029500007629,1.558776497841,22.69432950057,2.338386535645,1537.875107468737
167,2.040000006557,1.569121956825,22.68398404158,2.358921051025,1551.3799406370158
168,2.050500005484,1.57949411869,22.67361187972,2.379817962646,1565.1231091487375
169,2.060499995947,1.589526891708,22.6635791067,2.399339675903,1577.9618577540027
170,2.070500001311,1.599685430527,22.65342056788,2.416582107544,1589.3016024919746
171,2.080500006676,1.609874486923,22.64323151149,2.434324264526,1600.96999912337
172,2.090499997139,1.619987249374,22.63311874903,2.452463150024,1612.8993102357033
173,2.100500002503,1.629989385605,22.6231166128,2.47194480896,1625.7117165137809
174,2.111000001431,1.640464544296,22.61264145411,2.491609573364,1638.6445448593763
175,2.121000006795,1.650481939316,22.60262405909,2.511987686157,1652.046517511815
176,2.130999997258,1.660594701767,22.59251129664,2.530626296997,1664.3044805182292
177,2.141000002623,1.670764684677,22.58234131373,2.54981803894,1676.926218521421
178,2.151000007987,1.680953741074,22.57215225733,2.56764793396,1688.6523173943244
179,2.16099999845,1.691089391708,22.5620166067,2.58690071106,1701.314196087347
180,2.171000003815,1.701194524765,22.55191147364,2.604249954224,1712.7241870313712
181,2.180999994278,1.711211919785,22.54189407862,2.622510910034,1724.7337795220494
182,2.191500008106,1.721618413925,22.53148758448,2.642206192017,1737.686678212889
183,2.202000007033,1.731971502304,22.5211344961,2.662492752075,1751.028439830911
184,2.21250000596,1.742358922958,22.51074707545,2.681444168091,1763.4921238703216
185,2.223000004888,1.75275015831,22.5003558401,2.702058792114,1777.0496416936328
186,2.233500003815,1.763179540634,22.48992645777,2.721841812134,1790.0602426253226
187,2.244000002742,1.773635625839,22.47947037257,2.740671157837,1802.4436452857303
188,2.254500001669,1.784015417099,22.46909058131,2.760675430298,1815.5997562159996
189,2.265000000596,1.794387578964,22.45871841944,2.781698226929,1829.425714899633
190,2.275499999523,1.80482840538,22.44827759303,2.801599502563,1842.5140884161017
191,2.28599999845,1.815318822861,22.43778717555,2.822145462036,1856.0264479644227
192,2.296000003815,1.825366735458,22.42773926295,2.840391159058,1868.0260052834656
193,2.306500002742,1.835860967636,22.41724503077,2.860280990601,1881.1068524212073
194,2.317000001669,1.846265673637,22.40684032477,2.880776882172,1894.5862840600512
195,2.327500000596,1.856698870659,22.39640712775,2.901200771332,1908.0183622293691
196,2.33750000596,1.866739153862,22.38636684455,2.919854640961,1920.2863604080762
197,2.347499996424,1.876848101616,22.37625789679,2.939504146576,1933.209153581379
198,2.357500001788,1.887037158012,22.3660688404,2.957116603851,1944.7922512479536
199,2.367500007153,1.89725291729,22.35585308112,2.975331783295,1956.7717382224102
200,2.377499997616,1.907388567924,22.34571743048,2.994081020355,1969.102456227785
201,2.387999996543,1.917852282524,22.33525371588,3.014363765717,1982.4417090535558
202,2.39849999547,1.928289294243,22.32481670417,3.033879756927,1995.276694468471
203,2.408500000834,1.938321948051,22.31478405036,3.054513454437,2008.8467562576423
204,2.418500006199,1.948514819145,22.30459117926,3.072556972504,2020.7133475433075
205,2.428499996662,1.958787798882,22.29431819953,3.090192317963,2032.3114979686507
206,2.438500002027,1.969003558159,22.28410244025,3.109170436859,2044.7927435590807
207,2.448500007391,1.979047656059,22.27405834235,3.128705501556,2057.6402729398555
208,2.459000006318,1.989374041557,22.26373195685,3.149594783783,2071.3784238657595
209,2.469500005245,1.999565005302,22.25354099311,3.171338558197,2085.678544442054
210,2.480000004172,2.009824752808,22.2432812456,3.192510128021,2099.60234605571
211,2.489999994636,2.019876480103,22.23322951831,3.210561275482,2111.473954927193
212,2.5,2.030096054077,22.22300994433,3.22997045517,2124.2386941367135
213,2.510000005364,2.04034614563,22.21275985278,3.247373104095,2135.683808183435
214,2.519999995828,2.050405502319,22.20270049609,3.267858028412,2149.1560270425834
215,2.530499994755,2.060808181763,22.19229781665,3.287312984467,2161.9508717689837
216,2.541000008583,2.071157455444,22.18194854296,3.307775020599,2175.408037868706
217,2.55150000751,2.081613540649,22.17149245776,3.328958034515,2189.3393658617465
218,2.561499997973,2.091671705246,22.16143429316,3.349148988724,2202.6182508539137
219,2.571500003338,2.101769208908,22.1513367895,3.367505311966,2214.690563171918
220,2.582000002265,2.112244367599,22.14086163081,3.390897035599,2230.0744823604773
221,2.592500001192,2.122597455978,22.13050854243,3.413083314896,2244.6656229345886
222,2.603000000119,2.13289141655,22.12021458186,3.431535005569,2256.8006550792607
223,2.613499999046,2.143290281296,22.10981571711,3.452588319778,2270.6466841074803
224,2.623500004411,2.153311491013,22.0997945074,3.472081422806,2283.466616764942
225,2.633499994874,2.163531064987,22.08957493342,3.490121126175,2295.3306992570406
226,2.643500000238,2.173846006393,22.07925999201,3.510888338089,2308.9885688039417
227,2.653500005603,2.184061765671,22.06904423274,3.530747652054,2322.0493455970973
228,2.663499996066,2.194067716599,22.05903828181,3.549481630325,2334.370028430179
229,2.673999994993,2.204388380051,22.04871761836,3.572880983353,2349.7589652052143
230,2.684500008821,2.214567899704,22.0385380987,3.595444917679,2364.5984762944036
231,2.695000007749,2.224875211716,22.02823078669,3.615353822708,2377.6918673973473
232,2.704999998212,2.234980344772,22.01812565364,3.637265443802,2392.102374869524
233,2.715000003576,2.245272397995,22.00783360041,3.658276796341,2405.9208071737735
234,2.72499999404,2.255568265915,21.99753773249,3.679154634476,2419.6514317202927
235,2.734999999404,2.265742063522,21.98736393489,3.700570344925,2433.7357960912973
236,2.745499998331,2.27615237236,21.97695362605,3.722970247269,2448.4674290781704
237,2.755999997258,2.286463499069,21.96664249934,3.745515108109,2463.2943962021577
238,2.766499996185,2.29691195488,21.95619404353,3.76766705513,2477.8629576381163
239,2.77650000155,2.307047605515,21.94605839289,3.785630464554,2489.676864268749
240,2.786500006914,2.317290067673,21.93581593074,3.805764436722,2502.918274163839
241,2.796499997377,2.327494382858,21.92561161555,3.827584505081,2517.268570601599
