,time,travel,position,force,stress
0,0.0,0.0,25.77196086233,-0.002692002104595,-1.4876577838891656
1,0.0,0.0,25.77196664398,-0.002472180174664,-1.3661794965679195
2,0.0,0.0,25.77197612112,-0.001332599087618,-0.7364226803963696
3,0.0,0.0,25.77197183704,-0.001328724785708,-0.7342816585213457
4,0.0,0.0,25.77197513019,-0.001393336220644,-0.769987315640529
5,0.0,0.0,25.83792199221,-0.003236408811063,-1.7885085421765292
6,0.0,0.0,25.83792216368,-0.003391321282834,-1.8741164783881208
7,0.008000001311302,5.304114893079e-06,25.83791685957,-0.003916318994015,-2.1642414118825215
8,0.01099999248981,7.222406566143e-07,25.83792144144,-0.004327352624387,-2.3913873634474894
9,0.01299999654293,-7.643830031157e-07,25.83792292807,-0.004543359857053,-2.5107575676919165
10,0.01399999856949,-9.138835594058e-06,25.83793130252,-0.004600937943906,-2.542576446637852
11,0.1145000010729,1.982945832424e-06,25.83792018074,-0.004616878461093,-2.5513855164494923
12,0.2150000035763,-2.213900734205e-05,25.83794430269,-0.004705856088549,-2.6005564512905046
13,0.3155000060797,-1.968614378711e-05,25.83794184983,-0.001765705179423,-0.9757663449587931
14,0.4159999936819,-2.789266727632e-05,25.83795005635,-0.003063220065087,-1.6928007470030328
15,0.5135000050068,0.01020990125835,25.82771226242,0.0115554574877,6.385792287693436
16,0.5259999930859,0.02058969251812,25.81733247117,0.04134442657232,22.847812007932763
17,0.5329999923706,0.03075586073101,25.80716630295,0.04278066009283,23.641505286486378
18,0.5384999960661,0.04078851267695,25.79713365101,0.03438832610846,19.003722516727397
19,0.5435000061989,0.05105767771602,25.78686448597,0.03721120208502,20.56370399382769
20,0.5479999929667,0.06128869578242,25.7766334679,0.05752065032721,31.787138296652497
21,0.5520000010729,0.07163415849209,25.76628800519,0.0705936178565,39.01153900209119
22,0.5555000007153,0.08178888261318,25.75613328107,0.06837346404791,37.78463465118357
23,0.5590000003576,0.0928286164999,25.74509354718,0.05700566619635,31.502547081234955
24,0.5625,0.1044634431601,25.73345872052,0.04678227752447,25.85288443443152
25,0.5655000060797,0.114702090621,25.72322007306,0.03822972625494,21.12656217542956
26,0.5684999972582,0.1250094026327,25.71291276105,0.02770116366446,15.308253911793091
27,0.5715000033379,0.1351946443319,25.70272751935,0.02044179476798,11.2965718159516
28,0.5750000029802,0.1467913240194,25.69113083966,0.01260640658438,6.966569175452409
29,0.5785000026226,0.1578539460897,25.68006821759,0.006346488371491,3.507204845826478
30,0.582000002265,0.1683138459921,25.66960831769,0.01272227801383,7.030602198924948
31,0.58599999547,0.1797045320272,25.65821763166,0.02724101580679,15.05396639060793
32,0.5900000035763,0.1907671540976,25.64715500959,0.03952433913946,21.841992869741414
33,0.5939999967813,0.2016695588827,25.6362526048,0.04232790321112,23.39130217626756
34,0.5980000048876,0.2123278230429,25.62559434064,0.03029634989798,16.742409180226236
35,0.6019999980927,0.2223375886679,25.61558457502,0.02348791994154,12.979925561259698
36,0.6064999997616,0.2326372712851,25.6052848924,0.03087031282485,17.059593336347252
37,0.6114999949932,0.2430971711874,25.5948249925,0.04690729826689,25.921973563407775
38,0.6169999986887,0.254022449255,25.58389971443,0.06149470061064,33.983283250484554
39,0.6225000023842,0.2648104131222,25.57311175056,0.07239329069853,40.00607660194298
40,0.6280000060797,0.2757814824581,25.56214068123,0.0798205062747,44.11051435318109
41,0.6330000013113,0.2859819829464,25.55194018074,0.08211027830839,45.37589122024826
42,0.6379999965429,0.2963350713253,25.54158709236,0.08233975619078,45.50270559286156
43,0.6430000066757,0.3067263066769,25.53119585701,0.08254766464233,45.617600237912825
44,0.6480000019073,0.3170412480831,25.5208809156,0.08335590362549,46.06425033989019
45,0.652999997139,0.3272036015987,25.51071856208,0.08534336090088,47.16256162309251
46,0.6579999923706,0.3372209966183,25.50070116707,0.09028148651123,49.891475166481
47,0.6634999960661,0.3481539189816,25.4897682447,0.09592914581299,53.01249216222415
48,0.6689999997616,0.3590563237667,25.47886583992,0.100697517395,55.64759600866794
49,0.6745000034571,0.3699587285519,25.46796343513,0.1042623519897,57.61759964426342
50,0.6800000071526,0.3808535039425,25.45706865974,0.1089277267456,60.195785247657966
51,0.6854999959469,0.3917787969112,25.44614336677,0.1127920150757,62.331273404837624
52,0.6909999996424,0.4027269780636,25.43519518562,0.1155853271484,63.874917238061485
53,0.6965000033379,0.4136599004269,25.42426226326,0.1199626922607,66.29394256910508
54,0.7020000070333,0.424562305212,25.41335985847,0.1235771179199,68.2913512847296
55,0.7074999958277,0.4354418218136,25.40248034187,0.1284656524658,70.99285974811667
56,0.7129999995232,0.4463289678097,25.39159319587,0.1336612701416,73.864068899225
57,0.7185000032187,0.4572542607784,25.3806679029,0.1385116577148,76.54449653181625
58,0.7240000069141,0.4681566655636,25.36976549812,0.1428203582764,78.92557636751579
59,0.7294999957085,0.4790819585323,25.35884020515,0.1465797424316,81.00309224002075
60,0.734999999404,0.4899996221066,25.34792254158,0.1509113311768,83.39682057418672
61,0.7405000030994,0.5009416341782,25.33698052951,0.1552232801914,85.77969557430414
62,0.7460000067949,0.5119050741196,25.32601708956,0.1597112715244,88.25985531458379
63,0.7510000020266,0.5219224691391,25.31599969454,0.1637720167637,90.50390975024864
64,0.7559999972582,0.5319551229477,25.30596704074,0.1653570234776,91.37981826882859
65,0.7609999924898,0.5419725179672,25.29594964572,0.1682294905186,92.96720482592477
66,0.7664999961853,0.5529359579086,25.28498620577,0.1720689833164,95.08899044306226
67,0.7719999998808,0.56389939785,25.27402276583,0.1776231825352,98.15835940344131
68,0.7769999951124,0.5739167928696,25.26400537081,0.1809972822666,100.0229588851682
69,0.7820000052452,0.5839341878891,25.25398797579,0.1847929060459,102.12050154694855
70,0.7870000004768,0.5939515829086,25.24397058077,0.1895479261875,104.74822710263312
71,0.7919999957085,0.6039613485336,25.23396081515,0.1932004988194,106.76671664905346
72,0.797499999404,0.6149324178696,25.22298974581,0.1972364485264,108.99706854467617
73,0.8030000030994,0.6258424520493,25.21207971163,0.2016061842442,111.4118777095827
74,0.8085000067949,0.6367219686508,25.20120019503,0.2071947157383,114.50021941760615
75,0.8139999955893,0.647624373436,25.19029779025,0.2125238478184,117.44521147641694
76,0.8194999992847,0.6585344076157,25.17938775607,0.2161220610142,119.43366083895187
77,0.8250000029802,0.6694444417953,25.16847772189,0.2194618284702,121.27928757297909
78,0.8305000066757,0.6803086996078,25.15761346408,0.2240699827671,123.82585193020753
79,0.83599999547,0.6911653280258,25.14675683566,0.2279361784458,125.96239412890765
80,0.8414999991655,0.7019990682602,25.13592309542,0.2319778501987,128.19590814914693
81,0.847000002861,0.7128251791,25.12509698458,0.2368358671665,130.88055194793054
82,0.8525000065565,0.7236894369125,25.11423272677,0.2418731749058,133.66427565134947
83,0.8579999953508,0.7345842123032,25.10333795138,0.2459806501865,135.93415410465218
84,0.8634999990463,0.7454560995102,25.09246606417,0.248957067728,137.57898592560755
85,0.8690000027418,0.7562593221664,25.08166284152,0.2549957334995,140.91608143676748
86,0.8745000064373,0.7670472860336,25.07087487765,0.2616447508335,144.5904702402737
87,0.8799999952316,0.777881026268,25.06004113742,0.2667755186558,147.42584197907888
88,0.8854999989271,0.7887986898422,25.04912347384,0.2708171904087,149.65935599931817
89,0.8910000026226,0.7997545003891,25.03816766329,0.2746051847935,151.75268249496145
90,0.8965000063181,0.810725569725,25.02719659396,0.2783645689487,153.8301983674664
91,0.9019999951124,0.8216737508774,25.01624841281,0.2833713591099,156.59705740628186
92,0.9074999988079,0.8326524496078,25.00526971408,0.2882885038853,159.31437649275196
93,0.9124999940395,0.8426774740219,24.99524468966,0.2927803099155,161.79664431607253
94,0.9175000041723,0.8527711629868,24.9851510007,0.295629888773,163.37138237475753
95,0.922499999404,0.8629182577133,24.97500390597,0.2986625730991,165.04730842106352
96,0.9274999946356,0.8730806112289,24.96484155245,0.3027156889439,167.2871466905913
97,0.9325000047684,0.88323533535,24.95468682833,0.3074726164341,169.91592628779637
98,0.9375,0.8933748006821,24.944547363,0.312189489603,172.52257101268515
99,0.9424999952316,0.9034913778305,24.93443078585,0.317675024271,175.55399447766484
100,0.9475000053644,0.913623213768,24.92429894992,0.3233169615269,178.67184934881348
101,0.952500000596,0.9237779378891,24.91414422579,0.3273796141148,180.9169578259988
102,0.9574999958277,0.9338945150375,24.90402764865,0.3311256468296,182.98709540775008
103,0.9625000059605,0.9439729452133,24.89394921847,0.3349651396275,185.10888102494286
104,0.9675000011921,0.9540055990219,24.88391656466,0.3387435972691,187.19693731287336
105,0.9730000048876,0.9649461507797,24.8729760129,0.3433612883091,189.7487718777593
106,0.9784999936819,0.9758104085922,24.86211175509,0.3486274778843,192.65898056578737
107,0.9839999973774,0.9866136312485,24.85130853243,0.3537944853306,195.51437909381264
108,0.9895000010729,0.9973863363266,24.84053582736,0.3601116240025,199.00536466961077
109,0.9950000047684,1.008227109909,24.82969505377,0.3644234836102,201.38819026156818
110,1.000499993563,1.019098997116,24.81882316657,0.3676278293133,203.1589800463725
111,1.005999997258,1.029955625534,24.80796653815,0.3717753589153,205.45099337199144
112,1.011500000954,1.040804624557,24.79711753913,0.3786799609661,209.26662374166943
113,1.017000004649,1.051661252975,24.78626091071,0.3851916491985,212.86512155437703
114,1.022499993443,1.062563657761,24.77535850592,0.3909232318401,216.03251637781574
115,1.027999997139,1.073481321335,24.76444084235,0.3954035937786,218.5084599519583
116,1.033500000834,1.084437131882,24.7534850318,0.4003760516644,221.25634624307406
117,1.03900000453,1.095408201218,24.74251396247,0.4044882953167,223.52885980023314
118,1.044499993324,1.10635638237,24.73156578131,0.4083363711834,225.6553886043232
119,1.04999999702,1.117251157761,24.72067100592,0.4138295352459,228.69102823543997
120,1.055500000715,1.128115415573,24.70980674811,0.4201848208904,232.20309464197865
121,1.061000004411,1.138994932175,24.69892723151,0.4249093234539,234.81395553305973
122,1.066499993205,1.149889707565,24.68803245612,0.4290635287762,237.10965800411083
123,1.071999996901,1.160799741745,24.67712242194,0.4334752261639,239.54765608285405
124,1.077500000596,1.171740293503,24.66618187018,0.4386498630047,242.40727077701638
125,1.083000004292,1.182711362839,24.65521080084,0.4445264041424,245.6547727573908
126,1.088499993086,1.193644285202,24.64427787848,0.4519993960857,249.7845075055231
127,1.093999996781,1.204554319382,24.6333678443,0.4575078189373,252.82857946896925
128,1.099500000477,1.215464353561,24.62245781012,0.4617879092693,255.19384868153048
129,1.105000004172,1.226427793503,24.61149437018,0.4642092883587,256.5319544147852
130,1.110499992967,1.237414121628,24.60050804206,0.4664942920208,257.7946961780015
131,1.115999996662,1.248392820358,24.58952934333,0.4702059924603,259.8458610121084
132,1.121500000358,1.259341001511,24.57858116217,0.4760024249554,263.04909324785024
133,1.127000004053,1.270266294479,24.5676558692,0.4828955829144,266.858399368295
134,1.132499992847,1.281153440475,24.55676872321,0.4898421466351,270.6972186518097
135,1.137999996543,1.292040586472,24.54588157721,0.4957129657269,273.9415585075675
136,1.143500000238,1.302981138229,24.53494102545,0.5015951991081,277.19220614311655
137,1.149000003934,1.31395983696,24.52396232672,0.5076720118523,280.55038248507236
138,1.154499992728,1.32493853569,24.51298362799,0.5142561793327,284.1889338762201
139,1.159999996424,1.335909605026,24.50201255866,0.5219046473503,288.41564044594685
140,1.165000006557,1.345919370651,24.49200279303,0.5277983546257,291.67262880017114
141,1.170000001788,1.35595202446,24.48197013922,0.530258834362,293.03234238492666
142,1.17499999702,1.365961790085,24.4719603736,0.5344721674919,295.3607201436642
143,1.180000007153,1.375986814499,24.46193534918,0.539578139782,298.1823893424825
144,1.185000002384,1.386072874069,24.45184928961,0.5425059199333,299.8003431041691
145,1.189999997616,1.396197080612,24.44172508307,0.5453040003777,301.3466220413046
146,1.194999992847,1.406313657761,24.43160850592,0.5501105189323,304.00280671848344
147,1.20000000298,1.416453123093,24.42146904059,0.5551936030388,306.81182741883526
148,1.204999998212,1.426592588425,24.41132957526,0.5603129267693,309.64087490840717
149,1.209999993443,1.436716794968,24.40120536872,0.5645090937614,311.9597662932397
150,1.215000003576,1.446795225143,24.39112693854,0.5699316859245,314.95640638743674
151,1.219999998808,1.45685839653,24.38106376715,0.5760504603386,318.33777164322913
152,1.22499999404,1.466936826706,24.37098533698,0.5809122920036,321.0245235250536
153,1.230000004172,1.477015256882,24.3609069068,0.5844294428825,322.96817612219576
154,1.234999999404,1.487055540085,24.3508666236,0.5883700251579,325.14582594091183
155,1.240500003099,1.498026609421,24.33989555426,0.5941683650017,328.3501122182294
156,1.246000006795,1.508972883224,24.32894928046,0.5994114875793,331.2475735913605
157,1.251499995589,1.519905805588,24.3180163581,0.6052575111389,334.4782109071314
158,1.256999999285,1.530831098557,24.30709106513,0.6102681159973,337.2471780289878
159,1.26250000298,1.541786909103,24.29613525458,0.6158185005188,340.31443890627065
160,1.267499998212,1.551789045334,24.28613311835,0.6217312812805,343.58196767586514
161,1.272499993443,1.561836957932,24.27608520575,0.6266980171204,346.32669184236426
162,1.277500003576,1.571900129318,24.26602203437,0.6320462226868,349.28222431654535
163,1.282499998808,1.581993818283,24.2559283454,0.6370034217834,352.0216782752765
164,1.28749999404,1.592125654221,24.24579650946,0.6425576210022,355.0910472356556
165,1.292500004172,1.602272748947,24.23564941474,0.648012638092,358.1056060359765
166,1.297499999404,1.612435102463,24.22548706122,0.6535058021545,361.1412456670933
167,1.302499994636,1.622597455978,24.2153247077,0.659056186676,364.2085065443761
168,1.307500004768,1.632790327072,24.20513183661,0.6647439002991,367.3516584124577
169,1.3125,1.642998456955,24.19492370673,0.6679921150208,369.14669115267446
170,1.317499995232,1.653168439865,24.18475372382,0.6706900596619,370.63763290899163
171,1.322500005364,1.663269758224,24.17465240546,0.6742587089539,372.6097446276833
172,1.327500000596,1.673310041428,24.16461212226,0.6787943840027,375.1162554064162
173,1.333000004292,1.684281110764,24.15364105292,0.6851305961609,378.6177813975846
174,1.338499993086,1.695267438889,24.14265472479,0.6918330192566,382.3216833641608
175,1.343999996781,1.706269025803,24.13165313788,0.6977114677429,385.5702393860557
176,1.349000006914,1.716294050217,24.12162811347,0.702329158783,388.1220739509968
177,1.354000002146,1.726303815842,24.11161834784,0.7074770927429,390.96693206359663
178,1.359500005841,1.737244367599,24.10067779608,0.71320104599,394.1301107208982
179,1.364999994636,1.748146772385,24.0897753913,0.7203803062439,398.09752307211824
180,1.370499998331,1.759041547775,24.07888061591,0.7274832725525,402.02277376180183
181,1.376000002027,1.769959211349,24.06796295233,0.7334837913513,405.33878844216594
182,1.381500005722,1.780922651291,24.05699951239,0.7383608818054,408.0339726563198
183,1.386999994516,1.791886091232,24.04603607245,0.741952419281,410.01873287347786
184,1.392499998212,1.802834272385,24.0350878913,0.7466025352478,412.588486144543
185,1.398000001907,1.813767194748,24.02415496894,0.7527785301208,416.00147264644636
186,1.403500005603,1.824738264084,24.0131838996,0.7578520774841,418.8052231390854
187,1.408500000834,1.834748029709,24.00317413397,0.7628512382507,421.56786601170853
188,1.413499996066,1.844780683517,23.99314148017,0.7688326835632,424.8733402767024
189,1.418500006199,1.854874372482,23.9830477912,0.7744288444519,427.9658981509181
190,1.423500001431,1.865051984787,23.9728701789,0.780303478241,431.21234608977204
191,1.428499996662,1.875267744064,23.96265441962,0.7840552330017,433.28564579613993
192,1.433500006795,1.885460615158,23.95246154853,0.7886328697205,435.8153454887649
193,1.438500002027,1.895615339279,23.9423068244,0.7939295768738,438.74241884139644
194,1.443499997258,1.905716657639,23.93220550604,0.7987399101257,441.4007116016715
195,1.44849999249,1.915764570236,23.92215759345,0.8040041923523,444.3098662481791
196,1.453500002623,1.925797224045,23.91212493964,0.8104891777039,447.8936074793794
197,1.458499997854,1.935868024826,23.90205413886,0.8163638114929,451.14005541817806
198,1.463499993086,1.945999860764,23.89192230292,0.8207173347473,453.545905229995
199,1.468500003219,1.956139326096,23.88178283759,0.8233380317688,454.9941583040156
200,1.47349999845,1.966210126877,23.87171203681,0.827742099762,457.4279402166218
201,1.478499993682,1.976219892502,23.86170227118,0.8345131874084,461.169787678542
202,1.483500003815,1.986222028732,23.85170013495,0.8408989906311,464.69871874973944
203,1.488499999046,1.996231794357,23.84169036933,0.8471932411194,468.1770558270711
204,1.493499994278,2.006301879883,23.8316202838,0.8542320728302,472.0668643700079
205,1.498500004411,2.016426086426,23.82149607726,0.8594925403595,474.97391093341935
206,1.503499999642,2.026557922363,23.81136424132,0.8640949726105,477.5173131660312
207,1.508499994874,2.036643981934,23.80127818175,0.8685257434845,479.9658516601447
208,1.513999998569,2.047630310059,23.79029185362,0.8743622303009,483.1912187682029
209,1.519500002265,2.058540344238,23.77938181945,0.8814232349396,487.0932805440498
210,1.52500000596,2.069458007813,23.76846415587,0.8874580860138,490.4282679721136
211,1.530499994755,2.080429077148,23.75749308653,0.8923027515411,493.1055334800882
212,1.535500004888,2.090446472168,23.74747569152,0.8965046405792,495.4275869895926
213,1.540500000119,2.100486755371,23.73743540831,0.9010231494904,497.924611394531
214,1.545499995351,2.110504150391,23.72741801329,0.9052078723907,500.2371785301303
215,1.550999999046,2.12149810791,23.71642405577,0.9116623401642,503.80405509672704
216,1.555999994278,2.131507873535,23.70641429015,0.9177887439728,507.1896365186565
217,1.561000004411,2.141563415527,23.69635874816,0.923184633255,510.171520031291
218,1.565999999642,2.151664733887,23.6862574298,0.9281475543976,512.914136114694
219,1.570999994874,2.161781311035,23.67614085265,0.9335415363312,515.8949655858079
220,1.576000005007,2.171913146973,23.66600901671,0.938981294632,518.9010920538548
221,1.581000000238,2.182029724121,23.65589243956,0.9444191455841,521.9061644803259
222,1.58599999547,2.19213104248,23.6457911212,0.950320482254,525.1673690006872
223,1.591000005603,2.202209472656,23.63571269103,0.9557526111603,528.1692793025969
224,1.596000000834,2.212280273438,23.62564189025,0.9613564014435,531.2660533429498
225,1.600999996066,2.222351074219,23.61557108946,0.9658710956573,533.7609696647368
226,1.606000006199,2.232368469238,23.60555369445,0.9715588092804,536.9041215328183
227,1.611499994993,2.243362426758,23.59455973693,0.9784405231476,540.7071034040298
228,1.616500005126,2.253395080566,23.58452708312,0.9852039813995,544.444734699813
229,1.621500000358,2.263450622559,23.57447154112,0.9908859729767,547.5847244432779
230,1.626499995589,2.273529052734,23.56439311095,0.9958145618439,550.3083677789813
231,1.631500005722,2.283622741699,23.55429942198,1.000598192215,552.9519039577489
232,1.636500000954,2.293678283691,23.54424387999,1.004330873489,555.0146632485255
233,1.641499996185,2.303703308105,23.53421885558,1.009280443192,557.7499010416169
234,1.646999999881,2.314666748047,23.52325541564,1.015431642532,561.1491850030912
235,1.652500003576,2.325607299805,23.51231486388,1.022664308548,565.1461105176022
236,1.657999992371,2.336570739746,23.50135142394,1.028294801712,568.2576411394624
237,1.663499996066,2.347534179688,23.490387984,1.033429384232,571.0951209615847
238,1.668999999762,2.358474731445,23.47944743224,1.038764238358,574.0432751450122
239,1.674500003457,2.36939239502,23.46852976866,1.044911623001,577.4404510235561
