,time,travel,position,force,stress
0,0.0,0.0,19.14501308108,-0.003529444104061,-1.9504460955828264
1,0.0,0.0,19.1450095644,-0.003657236462459,-2.0210668786675927
2,0.0,0.0,19.14501385594,-0.003778338199481,-2.0879902816678224
3,0.0,0.0,19.14501165057,-0.004430651199073,-2.4484723591961846
4,0.0,0.0,19.14501475001,-0.004538654815406,-2.5081574613183983
5,0.0,0.0,19.7165848419,-0.00675343349576,-3.7320914017103566
6,0.0,0.0,19.71659194131,-0.006779260933399,-3.7463641946535664
7,0.008000001311302,-7.035210728645e-06,19.71659897652,-0.007250674068928,-4.006877148674017
8,0.01100000739098,-3.298744559288e-06,19.71659524006,-0.007374830543995,-4.075488665076027
9,0.01299999654293,1.663342118263e-06,19.71659027797,-0.00716108828783,-3.9573701351584094
10,0.01399999856949,8.756294846535e-06,19.71658318502,-0.006946034729481,-3.8385269516836016
11,0.1140000075102,-1.988525036722e-05,19.71661182656,-0.006265988573432,-3.4627189403438767
12,0.2144999951124,5.899164989387e-06,19.71658604215,-0.00658872583881,-3.6410704372357845
13,0.3145000040531,3.273640913903e-06,19.71658866767,-0.006595736835152,-3.6449448633601893
14,0.4150000065565,0.005564923398197,19.71102701791,-0.003222614293918,-1.780885397762666
15,0.4434999972582,0.01567229256034,19.70091964875,0.01452545635402,8.027077011832857
16,0.4560000002384,0.02608832344413,19.69050361787,0.02912907116115,16.097346051988186
17,0.4644999951124,0.03670844063163,19.67988350068,0.02406053058803,13.29636241839834
18,0.4715000092983,0.04705008491874,19.66954185639,0.02181891910732,12.057600100181189
19,0.4780000001192,0.0574527643621,19.65913917695,0.01997880451381,11.04071352583171
20,0.4845000058413,0.06827505677938,19.64831688453,0.02159602753818,11.934425464757092
21,0.4905000030994,0.07846792787313,19.63812401344,0.02290876023471,12.659869553684533
22,0.4965000003576,0.08865316957235,19.62793877174,0.02585179917514,14.286255647717063
23,0.5024999976158,0.09871634095907,19.61787560035,0.02220447175205,12.270664715566372
24,0.5090000033379,0.1089511737227,19.60764076759,0.02535183541477,14.009965009419501
25,0.5160000026226,0.1192508563399,19.59734108497,0.03638775646687,20.10865038099459
26,0.52349999547,0.129928201437,19.58666373987,0.04794628918171,26.496142104800736
27,0.5304999947548,0.1400180757046,19.57657386561,0.05774243175983,31.909699446956232
28,0.5375000089407,0.1504398286343,19.56615211268,0.05737991631031,31.709365677031617
29,0.5445000082254,0.1607051789761,19.55588676234,0.05409164726734,29.892198064515185
30,0.5520000010729,0.1708942353725,19.54569770594,0.05571778863668,30.790838471100898
31,0.5604999959469,0.1812091767788,19.53538276453,0.06239923089743,34.483145980758714
32,0.5700000077486,0.191394418478,19.52519752283,0.07029660791159,38.847404971258285
33,0.5810000002384,0.2016673982143,19.5149245431,0.07499965280294,41.44640789501329
34,0.5939999967813,0.2119632661343,19.50462867518,0.09409984201193,52.00157986237869
35,0.6064999997616,0.2222515046597,19.49434043665,0.1057880744338,58.46074641080774
36,0.6175000071526,0.2325454652309,19.48404647608,0.1115129813552,61.624452088869596
37,0.6274999976158,0.2426925599575,19.47389938135,0.1154259070754,63.786818305262805
38,0.6375000029802,0.2531791627407,19.46341277857,0.1180325374007,65.22729782291812
39,0.6475000083447,0.263566583395,19.45302535792,0.1238308772445,68.43158410023568
40,0.6574999988079,0.2736679017544,19.44292403956,0.1306305676699,72.18923806793374
41,0.667999997735,0.2839675843716,19.43262435694,0.1377526074648,76.12502917298765
42,0.6784999966621,0.2940956056118,19.4224963357,0.1447983533144,80.01865861650516
43,0.6889999955893,0.3041554391384,19.41243650217,0.152799487114,84.44025581978981
44,0.6995000094175,0.3143235146999,19.40226842661,0.1613749265671,89.17922657724164
45,0.7094999998808,0.3243237435818,19.39226819773,0.1695135831833,93.67682182236591
46,0.7195000052452,0.3348484933376,19.38174344797,0.175556063652,97.01602541656672
47,0.7290000021458,0.3450528085232,19.37153913279,0.1819723844528,100.56182115236766
48,0.7384999990463,0.3552075326443,19.36138440867,0.1879042387009,103.8398903373877
49,0.7485000044107,0.3656788766384,19.35091306467,0.1950205564499,107.77251931782499
50,0.758499994874,0.3758603036404,19.34073163767,0.2010134458542,111.08431783205204
51,0.7690000087023,0.386095136404,19.33049680491,0.2108095884323,116.49787517419648
52,0.7800000011921,0.3965664803982,19.32002546091,0.2197569608688,121.4423840316727
53,0.7905000001192,0.4066830575466,19.30990888376,0.2293280363083,126.73156447230416
54,0.8009999990463,0.4170819222927,19.29951001902,0.2359436750412,130.38750754887096
55,0.8110000044107,0.4271031320095,19.2894888093,0.2410210371017,133.1933661245509
56,0.820999994874,0.4371472299099,19.2794447114,0.2473982572556,136.71755400885104
57,0.8310000002384,0.4472027719021,19.26938916941,0.2534054517746,140.037257834592
58,0.8410000056028,0.4572850167751,19.25930692454,0.2606114149094,144.0194267673746
59,0.8509999960661,0.4673138558865,19.24927808543,0.2681473493576,148.1839448862896
60,0.8614999949932,0.4777279794216,19.23886396189,0.2765454053879,152.8248897806818
61,0.8720000088215,0.4880639016628,19.22852803965,0.2855843305588,157.81999263202377
62,0.8825000077486,0.4984665811062,19.21812536021,0.2954758405685,163.28625205107485
63,0.8924999982119,0.508468747139,19.20812319417,0.3036011457443,167.77646900544548
64,0.9025000035763,0.5185395479202,19.19805239339,0.3119724988937,172.40265731827503
65,0.9125000089407,0.5286141633987,19.18797777791,0.3204602003098,177.0931421650125
66,0.922499999404,0.5386201143265,19.17797182699,0.3298767805099,182.29694524094023
67,0.9329999983311,0.5489884614944,19.16760347982,0.3402718305588,188.041471626253
68,0.9434999972582,0.5592906475067,19.1573012938,0.3504381477833,193.65959537389003
69,0.9539999961853,0.5696265697479,19.14696537156,0.3609571754932,199.47263445913725
70,0.9644999951124,0.5801093578339,19.13648258348,0.3699941933155,204.46668326895877
71,0.9745000004768,0.5902030467987,19.12638889451,0.3781385719776,208.96744063869963
72,0.9845000058413,0.6003348827362,19.11625705858,0.3860235512257,213.32484835922787
73,0.9944999963045,0.6103904247284,19.10620151658,0.3960142433643,218.84591793828181
74,1.004999995232,0.6208617687225,19.09573017259,0.4067678749561,224.78860413281006
75,1.01550000906,0.6312720775604,19.08531986375,0.4176225960255,230.78715452891686
76,1.026000007987,0.6416442394257,19.07494770189,0.4274950325489,236.24287353259766
77,1.036500006914,0.6519687175751,19.06462322374,0.4378156960011,241.94629229789453
78,1.047000005841,0.6622989177704,19.05429302354,0.4476671516895,247.39041684462936
79,1.057500004768,0.6726024150848,19.04398952623,0.4583273231983,253.28145500377138
80,1.068000003695,0.6828811168671,19.03371082444,0.4715071022511,260.56488203541073
81,1.078500002623,0.6932685375214,19.02332340379,0.4821501076221,266.4464338206477
82,1.088500007987,0.7033126354218,19.01327930589,0.492545157671,272.1909602059605
83,1.09849999845,0.7134025096893,19.00318943162,0.5023203492165,277.5929395606009
84,1.108500003815,0.7234542369843,18.99313770433,0.5126066803932,283.2773855781428
85,1.118500009179,0.733460187912,18.9831317534,0.5227957367897,288.9080754772577
86,1.129000008106,0.743958234787,18.97263370652,0.5358152985573,296.10296301963194
87,1.138999998569,0.7539641857147,18.9626277556,0.5465517640114,302.0361628403104
88,1.149499997497,0.7644507884979,18.95214115281,0.5590792298317,308.95910766571143
89,1.159500002861,0.7744987010956,18.94209324022,0.5697622895241,314.8627943233199
90,1.169500008225,0.7846038341522,18.93198810716,0.5795794129372,320.2879461224103
91,1.179499998689,0.7946364879608,18.92195545335,0.5897055268288,325.8838526507424
92,1.189999997616,0.8050252199173,18.91156672139,0.6014893054962,332.39582009247005
93,1.200499996543,0.8153973817825,18.90119455953,0.6145622730255,339.62022079791427
94,1.21099999547,0.8258496522903,18.89074228902,0.6279060840607,346.99429540185963
95,1.221000000834,0.8359204530716,18.88067148824,0.6420319080353,354.8005270365943
96,1.231000006199,0.846094250679,18.87049769063,0.6537849903107,361.2955309973431
97,1.240999996662,0.8563519716263,18.86023996969,0.6656563282013,367.855885533465
98,1.251000002027,0.8665219545364,18.85006998678,0.6778099536896,374.57223821732117
99,1.261000007391,0.8765660524368,18.84002588887,0.6903221607208,381.4867507103929
100,1.271500006318,0.8869839906693,18.82960795064,0.7032883167267,388.6521250896973
101,1.282000005245,0.8972989320755,18.81929300924,0.7196037769318,397.6683964107416
102,1.292500004172,0.9076977968216,18.80889414449,0.7346107959747,405.96159523626847
103,1.302500009537,0.9177685976028,18.79882334371,0.7473785877228,413.01734929556716
104,1.3125,0.9279233217239,18.78866861959,0.7588112354279,419.33527427784105
105,1.322500005364,0.9379521608353,18.77863978048,0.7719299793243,426.5849719801629
106,1.333000004292,0.9483548402786,18.76823710103,0.7860443592072,434.3848793657196
107,1.343500003219,0.9585362672806,18.75805567403,0.8000595569611,442.1299765912183
108,1.354499995708,0.9687348604202,18.74785708089,0.8139984607697,449.83291215518057
109,1.366500005126,0.9788457155228,18.73774622579,0.825808763504,456.3595373620402
110,1.381500005722,0.989124417305,18.72746752401,0.8345205783844,461.17387208953045
111,1.40000000596,0.9970637559891,18.71952818532,0.8452093601227,467.08072087175555
112,1.500500008464,1.003441095352,18.71315084596,0.8588810563087,474.63599180388235
113,1.600999996066,1.00287103653,18.71372090478,0.8559387326241,473.010000975478
114,1.701000005007,1.00207901001,18.7145129313,0.8543227314949,472.1169642818868
115,1.80150000751,1.001468777657,18.71512316366,0.8458304405212,467.4239431477235
116,1.901999995112,1.00095307827,18.71563886304,0.8458151221275,467.41547787662074
117,2.002000004053,1.000629425049,18.71596251626,0.8448784351349,466.8978446648077
118,2.102500006557,1.000391244888,18.71620069642,0.8431417942047,465.93813984391517
119,2.20300000906,1.000275969505,18.71631597181,0.842299580574,465.47271462702184
120,2.303499996662,1.000164270401,18.71642767091,0.8398662209511,464.127988195408
121,2.403500005603,1.000113129616,18.7164788117,0.8399394154549,464.1684370394599
122,2.504000008106,1.000046253204,18.71654568811,0.8380278348923,463.1120568462093
123,2.604499995708,1.000025868416,18.7165660729,0.8379390239716,463.0629780370775
124,2.704500004649,1.000029444695,18.71656249662,0.8355820178986,461.76044620577346
125,2.805000007153,1.000026583672,18.71656535764,0.8338261842728,460.7901350919088
126,2.905499994755,1.000015616417,18.71657632489,0.8351897001266,461.5436430367575
127,3.005500003695,1.000008225441,18.71658371587,0.8313325047493,459.4120745965891
128,3.106000006199,0.9999890327454,18.71660290857,0.8297294378281,458.52618562222773
129,3.206500008702,0.9999980926514,18.71659384866,0.8301963210106,458.78419522757963
130,3.306999996305,1.000007867813,18.7165840735,0.8305609226227,458.9856818554441
131,3.407000005245,1.000033378601,18.71655856271,0.8278257250786,457.474153350318
132,3.507500007749,1.000038146973,18.71655379434,0.8266292214394,456.81293991765784
133,3.607999995351,1.000040650368,18.71655129094,0.8262275457382,456.59096535735966
134,3.708000004292,0.9999908804893,18.71660106082,0.8236526846886,455.1680422191005
135,3.808500006795,1.000013589859,18.71657835145,0.8235222697258,455.0959721288826
136,3.909000009298,0.9999999403954,18.71659200092,0.8235757350922,455.1255182307811
137,4.009499996901,1.000027775764,18.71656416555,0.8246841430664,455.7380481198659
138,4.109500005841,1.000013709068,18.71657823224,0.8214474916458,453.9494055064843
139,4.210000008345,1.000015974045,18.71657596727,0.822630405426,454.60310889318686
140,4.310499995947,1.000017881393,18.71657405992,0.8182114958763,452.1611252198858
141,4.410500004888,0.999991953373,18.71659998794,0.8190992474556,452.6517156785081
142,4.511000007391,0.9999756217003,18.71661631961,0.8199393749237,453.1159880374504
143,4.611499994993,0.9999914765358,18.71660046478,0.8196709752083,452.96766462970606
144,4.711500003934,0.9999927282333,18.71659921308,0.8200317025185,453.1670102357011
145,4.812000006437,0.9999994039536,18.71659253736,0.8174348473549,451.73193268090716
146,4.912500008941,1.000023245811,18.7165686955,0.8193702697754,452.80148839338443
147,5.012999996543,1.000002264977,18.71658967634,0.8174415230751,451.735621826284
148,5.113000005484,1.000017166138,18.71657477517,0.8158629536629,450.86327069793225
149,5.213500007987,0.9999957084656,18.71659623285,0.818139731884,452.1214669070019
150,5.313999995589,1.000056624413,18.7165353169,0.8166762590408,451.3127205977101
151,5.41400000453,1.000009894371,18.71658204694,0.8154498338699,450.63497188840086
152,5.514500007033,1.00003194809,18.71655999322,0.8144483566284,450.0815342030579
153,5.615000009537,1.000027060509,18.7165648808,0.8136976361275,449.6666700412571
154,5.715499997139,1.000009417534,18.71658252378,0.8137429952621,449.69173646655554
155,5.81550000608,1.000033259392,18.71655868192,0.8145005702972,450.1103885901638
156,5.916000008583,1.000000357628,18.71659158368,0.812943816185,449.25009306191635
157,6.016000002623,1.000038743019,18.71655319829,0.8143154382706,450.00808068336516
158,6.115999996662,1.000003099442,18.71658884187,0.8133527040482,449.47605321677247
159,6.216000005603,1.000009059906,18.71658288141,0.81089168787,448.1160431827806
160,6.315999999642,0.9999920725822,18.71659986873,0.8092527985573,447.2103579907782
161,6.416000008583,1.000006079674,18.71658586164,0.8083040714264,446.68607114172227
162,6.516000002623,1.000004649162,18.71658729215,0.8083308339119,446.7008606620582
163,6.615999996662,1.000005483627,18.71658645768,0.8073959946632,446.18424855293694
164,6.716000005603,1.000007033348,18.71658490796,0.8079113960266,446.4690703399557
165,6.815999999642,0.9999952316284,18.71659670968,0.8082917928696,446.6792857493307
166,6.916000008583,1.000007390976,18.71658455034,0.8080871105194,446.56617391669874
167,7.016000002623,0.9999932050705,18.71659873624,0.8057935237885,445.2986889665852
168,7.115999996662,1.000017404556,18.71657453676,0.8081142306328,446.5811610698405
169,7.216000005603,0.999991774559,18.71660016675,0.8040655851364,444.34379321019196
170,7.315999999642,0.9999983310699,18.71659361024,0.8032701611519,443.9042249498203
171,7.416000008583,1.000025033951,18.71656690736,0.8061944842339,445.52026826127184
172,7.516000002623,1.000012993813,18.7165789475,0.8028304576874,443.6612354363835
173,7.615999996662,1.000003099442,18.71658884187,0.8022348880768,443.3321109659588
174,7.716000005603,1.000022172928,18.71656976838,0.8039610385895,444.28601855837826
175,7.815999999642,1.000010371208,18.7165815701,0.8038238883018,444.21022638395493
176,7.916000008583,1.000031113625,18.71656082769,0.8011732697487,442.74543803334046
177,8.016000002623,1.000009059906,18.71658288141,0.7986997365952,441.3785108518085
178,8.115999996662,0.9999911189079,18.7166008224,0.8035389184952,444.05274599037045
179,8.216000005603,0.9999887943268,18.71660314698,0.8029798269272,443.7437800643698
180,8.315999999642,0.9999999403954,18.71659200092,0.800345480442,442.28798400556303
181,8.416000008583,0.9999895095825,18.71660243173,0.8003559112549,442.2937482952627
182,8.516000002623,0.9999871850014,18.71660475631,0.8001103997231,442.15807338598484
183,8.615999996662,1.000005245209,18.7165866961,0.8007254004478,442.4979359045303
184,8.716000005603,1.000013232231,18.71657870908,0.7979055643082,440.93963430617436
185,8.815999999642,0.9999973773956,18.71659456392,0.8000880479813,442.1457213366994
186,8.916000008583,1.000000119209,18.7165918221,0.8010741472244,442.690660812111
187,9.016000002623,0.9999984502792,18.71659349103,0.7973380684853,440.62602400965164
188,9.115999996662,1.00003027916,18.71656166215,0.7961084246635,439.94649660520065
189,9.216000005603,1.000014305115,18.7165776362,0.7970336079597,440.45777262900725
190,9.315999999642,0.999993622303,18.71659831901,0.7960661053658,439.9231100586134
191,9.416000008583,0.9999772310257,18.71661471029,0.7969946265221,440.4362306551083
192,9.516000002623,1.000030636787,18.71656130452,0.7983308434486,441.17465263044005
193,9.615999996662,1.00002014637,18.71657179494,0.796689927578,440.2678475193153
194,9.716000005603,1.000023603439,18.71656833787,0.7974643707275,440.6958213227409
195,9.815999999642,1.000004887581,18.71658705373,0.7957676053047,439.75815255778946
196,9.916000008583,1.000022172928,18.71656976838,0.7952923178673,439.49549858191557
197,10.01600000262,1.000016689301,18.71657525201,0.7957699894905,439.75947010971765
198,10.11599999666,1.000015854836,18.71657608648,0.7926672697067,438.0448409756177
199,10.2160000056,1.000042915344,18.71654902597,0.794503569603,439.0596194669207
200,10.31599999964,0.9999932050705,18.71659873624,0.7934311628342,438.46698461185224
201,10.41600000858,1.000013232231,18.71657870908,0.7942398190498,438.9138652853756
202,10.51600000262,1.000022053719,18.71656988759,0.79172706604,437.52526437468566
203,10.61599999666,0.9999911785126,18.7166007628,0.7923531532288,437.8712535097691
204,10.7160000056,1.000009179115,18.7165827622,0.790313065052,436.743857267821
205,10.81599999964,0.9999998807907,18.71659206052,0.7912704348564,437.2729202426029
206,10.91600000858,1.000036597252,18.71655534406,0.7905846238136,436.8939264318784
207,11.01600000262,1.000008702278,18.71658323903,0.7887091040611,435.85747421147266
208,11.11599999666,1.00001502037,18.71657692094,0.7899096012115,436.52089454360424
209,11.2160000056,1.000004053116,18.7165878882,0.7874561548233,435.1650677370314
210,11.31599999964,1.000012636185,18.71657930513,0.7887905240059,435.90246860967125
211,11.41600000858,0.9999857544899,18.71660618682,0.7893724441528,436.2240500953098
212,11.51600000262,1.00000166893,18.71659027238,0.7888416647911,435.9307300984149
213,11.61599999666,1.000015497208,18.7165764441,0.7902781963348,436.72458807094023
214,11.7160000056,1.000012874603,18.71657906671,0.7869340777397,434.8765568046358
215,11.81599999964,1.000007629395,18.71658431192,0.7891190648079,436.0840272646909
216,11.91600000858,0.9999955892563,18.71659635206,0.7881600260735,435.5540420035925
217,12.01600000262,1.000003933907,18.71658800741,0.7879101037979,435.4159296232088
218,12.11599999666,1.000008583069,18.71658335824,0.7886980772018,435.8513805338186
219,12.2160000056,1.000024318695,18.71656762262,0.7887914180756,435.90296269165816
220,12.31599999964,1.000004172325,18.71658776899,0.7905081510544,436.8516659539668
221,12.41600000858,1.000006556511,18.7165853848,0.7854565382004,434.060036939034
222,12.51600000262,1.000015377998,18.71657656331,0.7879042029381,435.4126686822169
223,12.61599999666,1.000011205673,18.71658073564,0.7866479754448,434.71845057386054
224,12.7160000056,1.000008106232,18.71658383508,0.7891385555267,436.0947982516404
225,12.81599999964,1.000009059906,18.71658288141,0.7868384718895,434.8237229725252
226,12.91600000858,1.000008702278,18.71658323903,0.7856176495552,434.1490705102307
227,13.01600000262,0.9999960064888,18.71659593482,0.7820263504982,432.1644420482765
228,13.11599999666,0.9999930858612,18.71659885545,0.7827708721161,432.5758805751083
229,13.2160000056,0.9999959468842,18.71659599443,0.7845180630684,433.5414155632471
230,13.31599999964,0.9999945163727,18.71659742494,0.7840448021889,433.2798815064956
231,13.41600000858,0.9999976754189,18.71659426589,0.7825956344604,432.47904050871773
232,13.51600000262,1.000020265579,18.71657167573,0.7833448648453,432.89308120063254
233,13.61599999666,1.000008702278,18.71658323903,0.7828366756439,432.61224500817167
234,13.7160000056,1.000007629395,18.71658431192,0.7812860012054,431.7553092372914
235,13.81599999964,0.9999971985817,18.71659474273,0.7810573577881,431.62895600788613
236,13.91600000858,0.9999975562096,18.7165943851,0.7824778556824,432.41395344375235
237,14.01600000262,0.9999929070473,18.71659903426,0.7817032933235,431.9859137626695
238,14.11599999666,1.000008583069,18.71658335824,0.7827988862991,432.59136181018164
