,time,travel,position,force,stress
0,0.0,0.0,26.44159272313,-0.009213158860803,-5.091388104818378
1,0.0,0.0,26.44159252197,-0.009296605363488,-5.137502422131047
2,0.0,0.0,26.44160560519,-0.009982297196984,-5.516430355251302
3,0.0,0.0,26.44159790129,-0.009442547336221,-5.218153069231879
4,0.0,0.0,26.44159439206,-0.009303787723184,-5.141471547300084
5,0.0,0.0,26.54960906246,-0.007669527083635,-4.2383442588113835
6,0.0,0.0,26.54961036143,-0.007496196776628,-4.142558233992634
7,0.008000001311302,5.989801138639e-06,26.54960437163,-0.008172105997801,-4.516080086878316
8,0.01100000739098,2.47685238719e-06,26.54960788458,-0.008551429957151,-4.725702597863529
9,0.01299999654293,1.487787812948e-06,26.54960887364,-0.008654188364744,-4.782489085754772
10,0.01399999856949,2.445187419653e-06,26.54960791624,-0.008658800274134,-4.785037725256544
11,0.1140000075102,5.840242374688e-05,26.549551959,-0.005572016350925,-3.079215087633954
12,0.2145000100136,1.815836549213e-05,26.54959220306,-0.005028855055571,-2.77905257009303
13,0.3149999976158,4.970748341293e-05,26.54956065394,-0.005721110850573,-3.161607888351982
14,0.4150000065565,2.769969250949e-05,26.54958266174,-0.004991922527552,-2.758642867332253
15,0.5155000090599,0.003974637482315,26.54563572395,0.006040172185749,3.3379279878060113
16,0.5310000032187,0.01408835314214,26.53552200829,0.04152543842793,22.947843020358345
17,0.5384999960661,0.0243918504566,26.52521851097,0.03051097877324,16.861017674767496
18,0.5445000082254,0.03448172658682,26.51512863484,0.02530105598271,13.981903212128708
19,0.5499999970198,0.04473563283682,26.50487472859,0.0276854801923,15.29958689054619
20,0.5550000071526,0.05484458059072,26.49476578084,0.03292496502399,18.195037967693654
21,0.5600000023842,0.06572409719229,26.48388626424,0.03584845364094,19.810620135959216
22,0.5645000040531,0.07619162648916,26.47341873494,0.03283770382404,18.146815567304166
23,0.569000005722,0.08704825490713,26.46256210652,0.03208167850971,17.729019852449223
24,0.573500007391,0.09811087697744,26.45149948445,0.02834518440068,15.664153507706613
25,0.5780000090599,0.109120093286,26.44049026814,0.0236640740186,13.077272061641258
26,0.5824999958277,0.1198546513915,26.42975571004,0.03132064640522,17.30845727855613
27,0.5869999974966,0.1305663138628,26.41904404757,0.04400070011616,24.315725427052076
28,0.5914999991655,0.1414382010698,26.40817216036,0.04950530827045,27.357689307396548
29,0.5960000008345,0.1525160819292,26.3970942795,0.05334575474262,29.480001945332962
30,0.6005000025034,0.1637465506792,26.38586381075,0.05276276171207,29.157827561304636
31,0.6050000041723,0.1749693900347,26.37464097139,0.05289478600025,29.23078699905476
32,0.6095000058413,0.1860854178667,26.36352494356,0.05353815853596,29.586328385540227
33,0.6140000075102,0.1969954520464,26.35261490938,0.05532796680927,30.575414614304307
34,0.6185000091791,0.2076918631792,26.34191849825,0.05868490040302,32.43052772220901
35,0.6229999959469,0.2181899100542,26.33142045137,0.06147439777851,33.972063472386445
36,0.6274999976158,0.2284285575151,26.32118180391,0.06138141453266,33.92067894738035
37,0.6325000077486,0.2393919974566,26.31021836397,0.06061787903309,33.49873294396818
38,0.6375000029802,0.2497984915972,26.29981186983,0.06722111999989,37.14782475054153
39,0.6424999982119,0.2598235309124,26.28978683052,0.07760472595692,42.88602688658242
40,0.6480000019073,0.2706343829632,26.27897597846,0.08566136658192,47.338298345553696
41,0.6535000056028,0.2814070880413,26.26820327339,0.09276051819324,51.2614409521522
42,0.6590000092983,0.2922713458538,26.25733901557,0.09919209778309,54.81566902025489
43,0.6644999980927,0.3032424151897,26.24636794624,0.1035999804735,57.2515590159075
44,0.6695000082254,0.3132979571819,26.23631240425,0.1062263995409,58.70297421454472
45,0.6745000034571,0.3233953416348,26.22621501979,0.1089162752032,60.18945688106427
46,0.6794999986887,0.3334508836269,26.2161594778,0.113587372005,62.77080460907543
47,0.6845000088215,0.3434835374355,26.20612682399,0.1160097047687,64.10943736309038
48,0.6899999976158,0.3544469773769,26.19516338405,0.1206083223224,66.65073151260606
49,0.6955000013113,0.3653493821621,26.18426097927,0.124983780086,69.06870280207393
50,0.7010000050068,0.3761983811855,26.17341198024,0.1310357898474,72.41317248668231
51,0.7065000087023,0.3870855271816,26.16252483425,0.1353349536657,74.78898211461382
52,0.7119999974966,0.3980031907558,26.15160717067,0.1411428302526,77.99853859958888
53,0.7170000076294,0.4080129563808,26.14159740505,0.1450280994177,80.14562121371453
54,0.722000002861,0.4180608689785,26.13154949245,0.1478881686926,81.72615650081725
55,0.7269999980927,0.4281164109707,26.12149395046,0.149818405509,82.792846537859
56,0.7325000017881,0.4391103684902,26.11049999294,0.1543330997229,85.28776285970125
57,0.7380000054836,0.4500585496426,26.09955181179,0.1594257205725,88.10205376771059
58,0.7435000091791,0.4609838426113,26.08862651882,0.1656169742346,91.52347260194327
59,0.7489999979734,0.4719472825527,26.07766307888,0.1701164096594,94.00995659145612
60,0.7545000016689,0.4829259812832,26.06668438014,0.1756534427404,97.06983917793008
61,0.7594999969006,0.4929433763027,26.05666698513,0.1802730411291,99.62272778439174
62,0.7645000070333,0.5029608011246,26.0466495603,0.1845912784338,102.00907782774877
63,0.769500002265,0.5130163431168,26.03659401831,0.1894206851721,104.67791100344931
64,0.7744999974966,0.5231100320816,26.02650032935,0.1942615360022,107.35306842838305
65,0.7795000076294,0.5332494974136,26.01636086401,0.1982116550207,109.5359884547566
66,0.784500002861,0.5434271097183,26.00618325171,0.2021999210119,111.73998931192597
67,0.7894999980927,0.5536352396011,25.99597512183,0.2051563113928,113.37375369675085
68,0.7945000082254,0.5638128519058,25.98579750952,0.2084007114172,115.16667835387143
69,0.7995000034571,0.573982834816,25.97562752661,0.2133998721838,117.92932122649454
70,0.8044999986887,0.5841680765152,25.96544228491,0.2176780551672,120.29353639753532
71,0.8095000088215,0.5943304300308,25.9552799314,0.2220573276281,122.71361577009935
72,0.8145000040531,0.6044775247574,25.94513283667,0.2274074405432,125.67020228585615
73,0.8194999992847,0.6146093606949,25.93500100073,0.2327003329992,128.59516755539158
74,0.8245000094175,0.6247183084488,25.92489205298,0.2378253787756,131.42737716958013
75,0.8295000046492,0.6348196268082,25.91479073462,0.2424468845129,133.98131981756222
76,0.8344999998808,0.644913315773,25.90469704565,0.2465114444494,136.227482336268
77,0.8395000100136,0.6549612283707,25.89464913306,0.2520771026611,139.30318378054594
78,0.8445000052452,0.6649938821793,25.88461647925,0.2568740844727,141.9540982501225
79,0.8495000004768,0.6750189065933,25.87459145483,0.2614650726318,144.49117623344588
80,0.8544999957085,0.6850439310074,25.86456643042,0.2646789550781,146.26723622596296
81,0.8595000058413,0.6950689554214,25.85454140601,0.2681789398193,148.20140244925528
82,0.8645000010729,0.7050939798355,25.84451638159,0.2708539962769,149.6796957071613
83,0.8700000047684,0.7160650491714,25.83354531226,0.2759141921997,152.4760679089914
84,0.8755000084639,0.7269827127457,25.82262764868,0.2823915481567,156.05559297399932
85,0.8809999972582,0.7379003763199,25.81170998511,0.289231300354,159.8353859313742
86,0.8865000009537,0.7488409280777,25.80076943335,0.2946462631226,162.82780985943413
87,0.8920000046492,0.7597967386246,25.7898136228,0.3000764846802,165.82866611976817
88,0.8975000083447,0.770775437355,25.77883492407,0.3052682876587,168.69776718778033
89,0.902999997139,0.7817388772964,25.76787148413,0.3110876083374,171.91364792198863
90,0.9085000008345,0.7926946878433,25.75691567358,0.3158197402954,174.52872497920677
91,0.91400000453,0.8036276102066,25.74598275122,0.3221998214722,178.0544939257876
92,0.9195000082254,0.8145834207535,25.73502694067,0.3270864486694,180.75494834759897
93,0.9249999970198,0.8255677223206,25.72404263911,0.3306850492954,182.74361181232635
94,0.9305000007153,0.8365540504456,25.71305631098,0.3356613218784,185.49360618648305
95,0.9354999959469,0.846556186676,25.70305417475,0.3413337767124,188.6283257222352
96,0.9405000060797,0.8566117286682,25.69299863276,0.3460601866245,191.24024065483673
97,0.9455000013113,0.8666596412659,25.68295072016,0.350841909647,193.88272279208394
98,0.9504999965429,0.8767228126526,25.67288754878,0.3576091825962,197.62246217096327
99,0.9555000066757,0.8868012428284,25.6628091186,0.3631862699986,200.70447962980876
100,0.9605000019073,0.8968796730042,25.65273068842,0.3688549101353,203.83709108246472
101,0.965499997139,0.9069886207581,25.64262174067,0.3741420805454,206.75889422738354
102,0.9705000072718,0.917112827301,25.63249753413,0.3783802092075,209.10097452610805
103,0.9755000025034,0.9272675514221,25.62234281001,0.3831218779087,211.72132179103897
104,0.980499997735,0.9374375343323,25.6121728271,0.3868259489536,213.76827045895357
105,0.9855000078678,0.9475846290588,25.60202573237,0.3903068602085,215.69189626687557
106,0.9905000030994,0.9576706886292,25.5919396728,0.3951801359653,218.3849723979333
107,0.9954999983311,0.9677491188049,25.58186124262,0.4010013639927,221.60190717371728
108,1.000500008464,0.9778046607971,25.57180570063,0.4054016172886,224.03358100322734
109,1.005500003695,0.9878220558167,25.56178830561,0.4100441038609,226.59911810815544
110,1.010499998927,0.9978394508362,25.55177091059,0.4153122007847,229.51038083770396
111,1.016000002623,1.008833408356,25.54077695307,0.4212593138218,232.79688235499813
112,1.021500006318,1.019789218903,25.52982114253,0.4270042479038,235.9716554691905
113,1.027000010014,1.030706882477,25.51890347895,0.4328102171421,239.18015791264511
114,1.032499998808,1.041609287262,25.50800107417,0.4378837645054,241.98390840528418
115,1.038000002503,1.052534580231,25.4970757812,0.4436191618443,245.153411311819
116,1.043500006199,1.063490390778,25.48611997065,0.4482158720493,247.693651419759
117,1.048500001431,1.073492527008,25.47611783442,0.4522785246372,249.93875989694428
118,1.053499996662,1.083517551422,25.46609281001,0.4565872251987,252.31983973258855
119,1.058500006795,1.093534946442,25.45607541499,0.4618534147739,255.23004842061664
120,1.06400001049,1.104521274567,25.44508908686,0.4674514830112,258.3236603363528
121,1.069499999285,1.115492343903,25.43411801753,0.4737037718296,261.7788084998478
122,1.07500000298,1.126448154449,25.42316220698,0.4801162779331,265.32249615255256
123,1.080500006676,1.137388706207,25.41222165522,0.4863380491734,268.760779651444
124,1.086000010371,1.148306369781,25.40130399165,0.4925979673862,272.2201439810208
125,1.091499999166,1.159193515778,25.39041684565,0.4982933104038,275.36751201523936
126,1.097000002861,1.17005777359,25.37955258784,0.5047591924667,278.9406963616274
127,1.102500006557,1.18096780777,25.36864255366,0.5105270147324,282.1281179743415
128,1.108000010252,1.191954135895,25.35765622553,0.5152152776718,284.71895207614716
129,1.113000005484,1.20196390152,25.34764645991,0.5187305212021,286.6615506317689
130,1.118000000715,1.211973667145,25.33763669428,0.5230907201767,289.07108958896265
131,1.122999995947,1.221975803375,25.32763455805,0.5272697210312,291.3804946000006
132,1.128499999642,1.232954502106,25.31665585932,0.533327460289,294.72813052653083
133,1.134000003338,1.243940830231,25.3056695312,0.5394958257675,298.13690086229707
134,1.138999998569,1.25395822525,25.29565213618,0.5445655584335,300.93854327183993
135,1.144000008702,1.264013767242,25.28559659419,0.5493930578232,303.60632240602
136,1.149000003934,1.274046421051,25.27556394038,0.5539668798447,306.13391401554884
137,1.154500007629,1.285025119781,25.26458524165,0.5602916479111,309.629115757484
138,1.159999996424,1.29595041275,25.25365994868,0.5673755407333,313.54382603174207
139,1.165500000119,1.306890964508,25.24271939692,0.5725692510605,316.41398114132994
140,1.171000003815,1.317841887474,25.23176847395,0.5775663852692,319.17550409483067
141,1.17650000751,1.328767180443,25.22084318099,0.5828001499176,322.06779407667955
142,1.181999996305,1.339677214622,25.20993314681,0.586683511734,324.2138226492295
143,1.1875,1.350556731224,25.1990536302,0.5927641391754,327.57410707422616
144,1.193000003695,1.361398100853,25.18821226057,0.5986273288727,330.8142307638468
145,1.198500007391,1.372224211693,25.17738614974,0.6052496433258,334.47386298579045
146,1.203999996185,1.383088469505,25.16652189192,0.6106817722321,337.47577328770024
147,1.209499999881,1.393967986107,25.15564237532,0.6159555912018,340.39019814186537
148,1.215000003576,1.404839873314,25.14477048811,0.6216967105865,343.5628631729616
149,1.220500007272,1.415688872337,25.13392148909,0.6271479129791,346.57531389024166
150,1.225999996066,1.426545500755,25.12306486067,0.6335852146149,350.1327040829886
151,1.231499999762,1.437440276146,25.11217008528,0.6395533084869,353.4308000571734
152,1.237000003457,1.448327422142,25.10128293929,0.6440069675446,355.8919870498087
153,1.242500007153,1.459214568138,25.09039579329,0.6480104923248,358.1044202392522
154,1.247999995947,1.470109343529,25.0795010179,0.6528742313385,360.79222616265236
155,1.253499999642,1.480981230736,25.06862913069,0.6580526828766,363.6539489399109
156,1.259000003338,1.491883635521,25.05772672591,0.6642019748688,367.0521788603068
157,1.264500007033,1.502831816673,25.04677854475,0.6712820529938,370.96478105152397
158,1.269500002265,1.512841582298,25.03676877913,0.678781747818,375.10927238121894
159,1.274499997497,1.522904753685,25.02670560774,0.6842215061188,378.1153988492657
160,1.279500007629,1.532967925072,25.01664243636,0.6882383823395,380.33521032951813
161,1.284500002861,1.543031096458,25.00657926497,0.6943876743317,383.73344024991417
162,1.289499998093,1.553071379662,24.99653898177,0.700998544693,387.3867482226246
163,1.294500008225,1.563134551048,24.98647581038,0.7064917087555,390.4223878537414
164,1.299500003457,1.57319009304,24.97642026839,0.7113192081451,393.09016698786616
165,1.304499998689,1.583260893822,24.96634946761,0.7159311771393,395.63883942819075
166,1.309500008821,1.593331694603,24.95627866682,0.720342874527,398.076837506934
167,1.314500004053,1.603387236595,24.94622312483,0.7249510288239,400.6234018641624
168,1.319499999285,1.613419890404,24.93619047102,0.7295324802399,403.15520963982834
169,1.324500009418,1.623460173607,24.92615018782,0.734876871109,406.1086340309132
170,1.329500004649,1.633477568626,24.9161327928,0.7422888278961,410.2046394498385
171,1.334499999881,1.64350259304,24.90610776839,0.7480089664459,413.365710024044
172,1.339500010014,1.653550505638,24.89605985579,0.7543680667877,416.8798845136788
173,1.344500005245,1.663621306419,24.88598905501,0.7614099979401,420.77140587415545
174,1.349500000477,1.673737883568,24.87587247786,0.765638589859,423.1082159651672
175,1.354499995708,1.683816313744,24.86579404768,0.770012140274,425.5251332131146
176,1.359500005841,1.693848967552,24.85576139388,0.7743322849274,427.91253729804737
177,1.365000009537,1.70478951931,24.84482084212,0.7802069187164,431.15898523684604
178,1.370499998331,1.715653777122,24.83395658431,0.7863295078278,434.54245857573466
179,1.376000002027,1.72651040554,24.82309995589,0.7923395633698,437.86374346381155
180,1.381500005722,1.737367033958,24.81224332747,0.7974588871002,440.6927909533282
181,1.387000009418,1.748216032982,24.80139432845,0.8026068210602,443.5376490659832
182,1.392499998212,1.759034514427,24.790575847,0.8073236942291,446.144293790872
183,1.398000001907,1.769761443138,24.77984891829,0.8137476444244,449.69430569280996
184,1.403500005603,1.780446410179,24.76916395125,0.8220064640045,454.258305554883
185,1.409000009298,1.791139006615,24.75847135481,0.8305857181549,458.99938439543104
186,1.414499998093,1.801888823509,24.74772153792,0.8368837833405,462.4798295558588
187,1.420000001788,1.812707304955,24.73690305647,0.8417665958405,465.1781758946293
188,1.425500005484,1.823502421379,24.72610794005,0.8476600646973,468.4350324936497
189,1.431000009179,1.834305644035,24.71530471739,0.8538055419922,471.8311543309495
190,1.436499997973,1.845162272453,24.70444808897,0.8598213195801,475.15560134364296
191,1.442000001669,1.856102824211,24.69350753722,0.865364074707,478.21864605473354
192,1.446999996901,1.866120219231,24.6834901422,0.8702983856201,480.9454515150535
193,1.452000007033,1.876175761223,24.6734346002,0.8753662109375,483.7460398830759
194,1.457000002265,1.886269450188,24.66334091124,0.8799495697021,486.2789017002622
195,1.461999997497,1.896393656731,24.6532167047,0.8848762512207,489.00149099444513
196,1.467000007629,1.906525492668,24.64308486876,0.8896141052246,491.6197301762799
197,1.472000002861,1.916657328606,24.63295303282,0.8946514129639,494.4034538796989
198,1.476999998093,1.926758646965,24.62285171446,0.8995723724365,497.12288104920987
199,1.482000008225,1.936844706535,24.61276565489,0.9039764404297,499.5566629618161
200,1.487000003457,1.946862101555,24.60274825987,0.9090671539307,502.36989982830494
201,1.492500007153,1.957787394524,24.5918229669,0.916597366333,506.5312558226034
202,1.497999995947,1.968682169914,24.58092819151,0.9239330291748,510.5850995799923
203,1.503499999642,1.979599833488,24.57001052794,0.929069519043,513.423633443414
204,1.509000003338,1.990540385246,24.55906997618,0.9346656799316,516.5161913175746
205,1.514500007033,2.001503944397,24.54810641703,0.9416275024414,520.3634429334186
206,1.519500002265,2.011513710022,24.53809665141,0.947582244873,523.6541606168498
207,1.524499997497,2.021515846252,24.52809451518,0.952465057373,526.3525069556204
208,1.529500007629,2.031517982483,24.51809237894,0.9581489562988,529.4935507406057
209,1.534999996424,2.042466163635,24.50714419779,0.9650802612305,533.3239376918463
210,1.540500000119,2.053429603577,24.49618075785,0.9712600708008,536.7390322768457
211,1.546000003815,2.064370155334,24.48524020609,0.9768619537354,539.834752275678
212,1.55150000751,2.075295448303,24.47431491312,0.9834842681885,543.4943844976217
213,1.556999996305,2.086220741272,24.46338962016,0.9901332855225,547.168773301128
214,1.5625,2.097115516663,24.45249484477,0.994966506958,549.8397145598694
215,1.568000003695,2.107979774475,24.44163058695,1.000099182129,552.6761403402502
216,1.573500007391,2.118821144104,24.43078921732,1.007221221924,556.6119314453595
217,1.578999996185,2.129715919495,24.41989444193,1.014026641846,560.3727516550898
218,1.584499999881,2.140686988831,24.4089233726,1.02006149292,563.7077390830431
219,1.589500010014,2.150712013245,24.39889834818,1.025810241699,566.8846202801658
220,1.594500005245,2.160775184631,24.3888351768,1.031162261963,569.8422608376089
221,1.599500000477,2.170884132385,24.37872622904,1.03670501709,572.9053055487547
222,1.604499995708,2.180985450745,24.36862491068,1.042289733887,575.9915391737925
223,1.609500005841,2.191094398499,24.35851596293,1.048564910889,579.4593358357539
224,1.614500001073,2.201226234436,24.34838412699,1.055755615234,583.4330724358202
225,1.619499996305,2.211403846741,24.33820651469,1.063095092773,587.4890242762501
226,1.624500006437,2.221634864807,24.32797549662,1.068302154541,590.3665576768127
227,1.629500001669,2.23192691803,24.3176834434,1.072526931763,592.7012596849493
228,1.634499996901,2.242203712463,24.30740664896,1.076259613037,594.7640189757258
229,1.639500007033,2.25243473053,24.2971756309,1.080863952637,597.3084752500793
230,1.644500002265,2.262597084045,24.28701327738,1.086448669434,600.394708875117
231,1.649499997497,2.272721290588,24.27688907084,1.092681884766,603.8393166231864
232,1.654500007629,2.282822608948,24.26678775248,1.09880065918,607.2206818789235
233,1.659500002861,2.292916297913,24.25669406352,1.105056762695,610.6779381251279
234,1.664499998093,2.303017616272,24.24659274516,1.111064910889,613.998168972016
235,1.669500008225,2.313118934631,24.2364914268,1.116748809814,617.1392127565591
236,1.674500003457,2.323221206665,24.22638915476,1.122375488281,620.248635295489
237,1.679499998689,2.333284378052,24.21632598338,1.128677368164,623.7311885390682
238,1.684500008821,2.343347549438,24.20626281199,1.134895324707,627.1673639548634
239,1.689500004053,2.353387832642,24.19622252879,1.141284942627,630.6984031091571
