,time,travel,position,force,stress
0,0.0,0.0,25.62075024116,-0.01470968686044,-7.491582000553372
1,0.0,0.0,25.62075214851,-0.01467547379434,-7.474157429071308
2,0.0,0.0,25.62075214851,-0.01477121189237,-7.52291644201112
3,0.0,0.0,25.62075286377,-0.01427795365453,-7.271702084337412
4,0.0,0.0,25.6207520293,-0.01414157822728,-7.2022466495754704
5,0.0,0.0,26.7211410011,-0.01370842196047,-6.981641974394532
6,0.0,0.0,26.72114139072,-0.01389498449862,-7.0766574948500285
7,0.008000001311302,-5.180947482586e-06,26.72114657167,-0.01408617757261,-7.174031327843445
8,0.01100000739098,-5.870359018445e-06,26.72114726108,-0.01432936452329,-7.29788542479118
9,0.01300001144409,-8.0072786659e-06,26.721149398,-0.01446359418333,-7.366248029286894
10,0.01399999856949,-7.239868864417e-06,26.72114863059,-0.01451342366636,-7.391625976601897
11,0.1140000075102,2.570915057731e-05,26.72111568157,-0.01402085553855,-7.140763089080354
12,0.2145000100136,5.576788680628e-06,26.72113581393,-0.01493429299444,-7.605972965272925
13,0.315000012517,-9.455736289965e-06,26.72115084646,-0.01574536971748,-8.01905094830842
14,0.4155000001192,0.001565075479448,26.71957631524,-0.01543343346566,-7.860183119806945
15,0.448500007391,0.0117190843448,26.70942230638,0.01214229781181,6.18402149517909
16,0.4585000127554,0.02180705219507,26.69933433853,0.02264582924545,11.533426127450795
17,0.4655000120401,0.03188929706812,26.68925209365,0.009612915106118,4.89581746131658
18,0.472000002861,0.04258189350367,26.67855949722,-0.004242064896971,-2.1604659112625484
19,0.4780000001192,0.05288539081812,26.6682559999,-0.01433575432748,-7.301139725342309
20,0.4840000122786,0.06314311176538,26.65799827896,-0.01930058188736,-9.829705638154389
21,0.4905000030994,0.07389292865992,26.64724846206,-0.02957165427506,-15.060719850497208
22,0.4975000023842,0.08416972309351,26.63697166763,-0.03757441416383,-19.13649199345814
23,0.5060000121593,0.09445033222437,26.6266910585,-0.04613984003663,-23.498827568956802
24,0.5185000002384,0.104763366282,26.61637802444,-0.02341449446976,-11.924904111552483
25,0.5320000052452,0.1151336207986,26.60600776992,-0.004239919129759,-2.1593730809953025
26,0.5425000041723,0.1252749860287,26.59586640469,-0.006968619767576,-3.549088904120368
27,0.5520000010729,0.1355899274349,26.58555146329,-0.01245129387826,-6.341391899567792
28,0.5610000044107,0.1456759870052,26.57546540372,-0.0157886762172,-8.041106767503447
29,0.5705000013113,0.1561594456434,26.56498194508,-0.0195121075958,-9.93743479683996
30,0.5805000066757,0.1664457768202,26.5546956139,-0.02247807942331,-11.44799184458242
31,0.5914999991655,0.1767187565565,26.54442263417,-0.0172416921705,-8.781121715852494
32,0.6025000065565,0.1869039982557,26.53423739247,-0.01140615809709,-5.809108617086465
33,0.6130000054836,0.1972723454237,26.5238690453,-0.011619691737,-5.917860406872324
34,0.623000010848,0.2076750248671,26.51346636585,-0.01322730351239,-6.736610360875704
35,0.6325000077486,0.217742010951,26.50339937977,-0.01577886007726,-8.036107448484142
36,0.6424999982119,0.2281828373671,26.49295855335,-0.01799817942083,-9.166397508735745
37,0.6530000120401,0.2386541813612,26.48248720936,-0.01769345067441,-9.011200432591938
38,0.6635000109673,0.2487345188856,26.47240687184,-0.01556884218007,-7.92914621176237
39,0.6740000098944,0.2588014900684,26.46233990065,-0.01565570943058,-7.973387339159068
40,0.6845000088215,0.2688932716846,26.45224811904,-0.01416833419353,-7.21587335129031
41,0.6950000077486,0.2791700661182,26.4419713246,-0.01424258667976,-7.2536898319954854
42,0.7055000066757,0.2896490395069,26.43149235122,-0.01503820810467,-7.658896496329065
43,0.7155000120401,0.2997427284718,26.42139866225,-0.0166911650449,-8.500740553147175
44,0.7255000025034,0.3098364174366,26.41130497329,-0.01623513735831,-8.268487559522981
45,0.7355000078678,0.3199873268604,26.40115406386,-0.01643695868552,-8.371274317432865
46,0.7454999983311,0.3300810158253,26.3910603749,-0.01602962054312,-8.163818705039809
47,0.7555000036955,0.3400984108448,26.38104297988,-0.01538736466318,-7.836720471368492
48,0.7660000026226,0.3505468666553,26.37059452407,-0.01413280609995,-7.197779041812266
49,0.7765000015497,0.3609915077686,26.36014988295,-0.01304877642542,-6.645687262101073
50,0.7865000069141,0.37102034688,26.35012104384,-0.01309303287417,-6.668226886364291
51,0.7965000122786,0.3811064064503,26.34003498427,-0.01343971770257,-6.844792019595733
52,0.8065000027418,0.3911810219288,26.32996036879,-0.01308676879853,-6.665036618837867
53,0.8170000016689,0.4016710221767,26.31947036855,-0.01108155213296,-5.643788157091585
54,0.827500000596,0.4121652543545,26.30897613637,-0.009479915723205,-4.828081431816497
55,0.8375000059605,0.4222207963467,26.29892059438,-0.009607551619411,-4.893085859967375
56,0.8475000113249,0.4323183000088,26.28882309071,-0.008390324190259,-4.273157020874317
57,0.8575000017881,0.4424882829189,26.2786531078,-0.006986748427153,-3.5583217546269594
58,0.8675000071526,0.4526773393154,26.26846405141,-0.006958551704884,-3.543961281897037
59,0.877500012517,0.4627901017666,26.25835128896,-0.0059669688344,-3.038952272864144
60,0.8875000029802,0.4728647172451,26.24827667348,-0.002588100498542,-1.3181087601969854
61,0.8975000083447,0.4829393327236,26.238202058,-0.001148290699348,-0.5848196509045877
62,0.9074999988079,0.4929758012295,26.22816558949,0.0003345536533743,0.17038677652471165
63,0.9175000041723,0.5030008554459,26.21814053528,0.003170542651787,1.614744113009878
64,0.9275000095367,0.5130335092545,26.20810788147,0.004778318107128,2.4335774285277756
65,0.9380000084639,0.5234857797623,26.19765561096,0.006669215857983,3.3966037451035205
66,0.948500007391,0.5338197946548,26.18732159607,0.008882455527782,4.523797452929393
67,0.9590000063181,0.5441309213638,26.17701046936,0.01275055855513,6.493806147941101
68,0.9695000052452,0.5545488595963,26.16659253113,0.01434122771025,7.303927296296803
69,0.9795000106096,0.564669251442,26.15647213928,0.01663243025541,8.470827170495028
70,0.9895000010729,0.5748430490494,26.14629834167,0.0179742500186,9.1542103642553
71,0.9995000064373,0.5849825143814,26.13615887634,0.01979099959135,10.079473323817705
72,1.010000005364,0.5954729318619,26.12566845886,0.02110277861357,10.747556893835517
73,1.020500004292,0.6057687997818,26.11537259094,0.02526747435331,12.86861901688633
74,1.031000003219,0.6159788370132,26.10516255371,0.0284928008914,14.511264334078309
75,1.041500002146,0.6263128519058,26.09482853882,0.03349386900663,17.0582874101683
76,1.05150000751,0.636425614357,26.08471577636,0.03604113310575,18.35559836292181
77,1.061499997973,0.6467405557632,26.07440083496,0.03756176680326,19.13005074561244
78,1.071500003338,0.6570376753807,26.06410371534,0.03901378810406,19.869559121602983
79,1.081500008702,0.667123734951,26.05401765577,0.04281847178936,21.807268610936053
80,1.092000007629,0.6774768233299,26.04366456739,0.04617731273174,23.517912255861546
81,1.102500006557,0.6877402663231,26.0334011244,0.05117742717266,26.064449629613826
82,1.113000005484,0.6981086134911,26.02303277723,0.05528824031353,28.158069570402883
83,1.123000010848,0.7081984877586,26.01294290296,0.05838958919048,29.73757358326397
84,1.133000001311,0.718486726284,26.00265466444,0.05888785421848,29.99133787822724
85,1.143000006676,0.7288932204247,25.9922481703,0.06013877689838,30.628427567609148
86,1.15300001204,0.7392348647118,25.98190652601,0.06192169338465,31.53645947772084
87,1.163000002503,0.7493590712547,25.97178231947,0.064493753016,32.84639869134154
88,1.173500001431,0.7597083449364,25.96143304579,0.06889495998621,35.0879149949557
89,1.184000000358,0.7699775099754,25.95116388075,0.07548675686121,38.445089575800374
90,1.194499999285,0.7803611159325,25.94078027479,0.08077583462,41.138794758868634
91,1.204500004649,0.7904471755028,25.93069421522,0.08417949825525,42.87226641381957
92,1.214500010014,0.8008040785789,25.92033731214,0.0872980132699,44.46051306882067
93,1.224500000477,0.8112487196922,25.90989267103,0.08903751522303,45.34643413876833
94,1.234500005841,0.8215407729149,25.89960061781,0.09172353893518,46.71441478213062
95,1.244500011206,0.8315429091454,25.88959848158,0.0952907577157,48.53118438856262
96,1.255000010133,0.8417701125145,25.87937127821,0.1001935973763,51.02818012351136
97,1.26550000906,0.8518256545067,25.86931573622,0.1055828109384,53.77288405242686
98,1.276000007987,0.8620509505272,25.85909044019,0.1097064986825,55.87306097479801
99,1.28599999845,0.8721179366112,25.84902345411,0.1117731109262,56.925577947723085
100,1.296000003815,0.8823565840721,25.83878480665,0.1136148944497,57.863590593707826
101,1.306000009179,0.8925723433495,25.82856904737,0.1168755069375,59.52420689751754
102,1.315999999642,0.9027042984962,25.81843709223,0.1207127422094,61.4784947737718
103,1.326499998569,0.9131909012794,25.80795048944,0.1244482845068,63.38099084340401
104,1.337000012398,0.9234581589699,25.79768323175,0.1292672008276,65.8352447723689
105,1.347500011325,0.9337158799171,25.7874255108,0.134898647666,68.70331709585878
106,1.358000010252,0.9441338181496,25.77700757257,0.1390194743872,70.80203691123205
107,1.368000000715,0.9541473984718,25.76699399225,0.1414551585913,72.04252069009083
108,1.37800000608,0.9641495347023,25.75699185602,0.1447234004736,73.70702261261243
109,1.388500005007,0.9745903611183,25.7465510296,0.1496157497168,76.1986756218514
110,1.399000003934,0.9849777817726,25.73616360895,0.1542572826147,78.56258891536959
111,1.409500002861,0.9953919053078,25.72574948541,0.1593947261572,81.1790674262317
112,1.419500008225,1.005458950996,25.71568243973,0.1638722270727,83.45943991711269
113,1.429499998689,1.015659451485,25.70548193924,0.1674008220434,85.25653857873225
114,1.439500004053,1.025875210762,25.69526617996,0.1700734943151,86.61771938931048
115,1.449500009418,1.03599178791,25.68514960281,0.1732148975134,88.21762290052371
116,1.460000008345,1.04645550251,25.67468588821,0.1775255054235,90.41299748171872
117,1.470500007272,1.056816220284,25.66432517044,0.1841516345739,93.78765734684339
118,1.481000006199,1.067314267159,25.65382712356,0.1890268176794,96.27056771394234
119,1.491000011563,1.077518582344,25.64362280838,0.191988453269,97.77891633385184
120,1.501000002027,1.087856411934,25.63328497879,0.1953348964453,99.48324584836156
121,1.511000007391,1.09817135334,25.62297003738,0.1989064067602,101.30220111530565
122,1.521000012755,1.108318448067,25.61282294266,0.2010485976934,102.393209998715
123,1.531500011683,1.118675351143,25.60246603958,0.205939039588,104.8838916032887
124,1.54200001061,1.12893307209,25.59220831863,0.2135951370001,108.7831099966608
125,1.552500009537,1.139366269112,25.58177512161,0.218987211585,111.52927103252325
126,1.5625,1.149513363838,25.57162802688,0.2211665958166,112.6392223072614
127,1.572500005364,1.159705877304,25.56143551342,0.224688783288,114.43305765628429
128,1.582500010729,1.169860601425,25.5512807893,0.2270989567041,115.66054889750347
129,1.592500001192,1.179866552353,25.54127483837,0.2305426746607,117.41442005080656
130,1.603000000119,1.190212011337,25.53092937938,0.234317317605,119.33682991638187
131,1.613499999046,1.200433492661,25.52070789806,0.2411952167749,122.83971519950902
132,1.623999997973,1.210725545883,25.51041584484,0.2465434223413,125.56353392771429
133,1.634500011802,1.22119307518,25.49994831554,0.2512879669666,127.97991066319135
134,1.644500002265,1.231240987778,25.48990040294,0.2526817619801,128.6897646345685
135,1.654500007629,1.241262197495,25.47987919323,0.256138831377,130.4504356205792
136,1.665000006557,1.251695394516,25.46944599621,0.2594375908375,132.13048001805038
137,1.675500005484,1.262079000473,25.45906239025,0.2625117599964,133.69614151417704
138,1.686000004411,1.27242064476,25.44872074596,0.2666554749012,135.806518185737
139,1.696500003338,1.282777547836,25.43836384289,0.2730279266834,139.051981228143
140,1.706500008702,1.292779684067,25.42836170666,0.2774510681629,141.30466868560615
141,1.716499999166,1.302961111069,25.41818027965,0.2796918451786,142.4458870485353
142,1.72650000453,1.313142538071,25.40799885265,0.2841197550297,144.70100301771245
143,1.736500009894,1.323148488998,25.39799290172,0.2889019548893,147.13655740654033
144,1.747000008821,1.333532094955,25.38760929577,0.2934776842594,149.4669572385473
145,1.757500007749,1.343896627426,25.3772447633,0.2976171076298,151.57514824958497
146,1.768000006676,1.354226827621,25.3669145631,0.3023139536381,153.9672322789046
147,1.778500005603,1.364633321762,25.35650806896,0.3072692453861,156.49094164260597
148,1.788500010967,1.374704122543,25.34643726818,0.3104554712772,158.113673163809
149,1.798500001431,1.384847402573,25.33629398815,0.3140460550785,159.94234247760926
150,1.808500006795,1.394929647446,25.32621174328,0.3192626535892,162.59913428274118
151,1.818500012159,1.404957890511,25.31618350021,0.3245535492897,165.29376533591952
152,1.829000011086,1.415452122688,25.30568926803,0.3289175629616,167.51633924825072
153,1.839500010014,1.425919651985,25.29522173874,0.3336363434792,169.9195944314244
154,1.849500000477,1.435921788216,25.28521960251,0.336866915226,171.56491111147633
155,1.859500005841,1.445923924446,25.27521746628,0.3394809365273,172.89622122811443
156,1.870000004768,1.456299901009,25.26484148971,0.3438201546669,175.1061668795428
157,1.880500003695,1.46664917469,25.25449221603,0.3493810296059,177.9382972298074
158,1.891000002623,1.477025151253,25.24411623947,0.3547444939613,180.6698871954365
159,1.90150000155,1.487431645393,25.23370974533,0.3596540093422,183.17028284681547
160,1.911500006914,1.497471928596,25.22366946213,0.3647332787514,185.75713351487826
161,1.921500012279,1.507672429085,25.21346896164,0.3674102425575,187.1204999859788
162,1.931500002742,1.517884373665,25.20325701706,0.3702078461647,188.5453078032511
163,1.941500008106,1.527920842171,25.19322054855,0.3725419640541,189.73406428279424
164,1.952000007033,1.538319706917,25.18282168381,0.3769803643227,191.99452297773212
165,1.96250000596,1.54858314991,25.17255824081,0.3815131783485,194.30306620436363
166,1.973000004888,1.558835148811,25.16230624191,0.3866277337074,196.90788785903908
167,1.983500003815,1.569218754768,25.15192263595,0.3899675011635,198.6088174571695
168,1.993500009179,1.57924759388,25.14189379684,0.3935404419899,200.428501277638
169,2.003499999642,1.589280247688,25.13186114303,0.3967404961586,202.05827548279137
170,2.013999998569,1.599743962288,25.12139742843,0.4013949036598,204.4287457579273
171,2.024500012398,1.61011993885,25.11102145187,0.4062529206276,206.90291348288622
172,2.035000011325,1.620410084724,25.100731306,0.4136572480202,210.67390645825589
173,2.045500010252,1.630746006966,25.09039538376,0.4184837937355,213.1320460059327
174,2.056000009179,1.641137242317,25.0800041484,0.423413336277,215.6426414064495
175,2.066500008106,1.651606440544,25.06953495018,0.427054554224,217.49709847889744
176,2.076499998569,1.661673426628,25.05946796409,0.4309150278568,219.4632215551728
177,2.086500003934,1.671820521355,25.04932086937,0.4340449869633,221.05729663829268
178,2.096500009298,1.681967616081,25.03917377464,0.4390727579594,223.61791937993547
179,2.106499999762,1.69208419323,25.02905719749,0.4439107477665,226.08188735570565
180,2.116500005126,1.702166438103,25.01897495262,0.4483825266361,228.35934563253997
181,2.12650001049,1.7122143507,25.00892704002,0.4525796473026,230.49692163518515
182,2.136500000954,1.722216486931,24.99892490379,0.4569598734379,232.72775248732373
183,2.146999999881,1.732703089714,24.98843830101,0.461011081934,234.79101603180436
184,2.157499998808,1.743174433708,24.97796695701,0.4642929136753,236.46243921268047
185,2.168000012636,1.753626704216,24.96751468651,0.4690522253513,238.88633674532164
186,2.178500011563,1.764094233513,24.95704715721,0.4735716879368,241.1880801392455
187,2.18900001049,1.774550318718,24.946591072,0.4774922430515,243.1848024629854
188,2.199500009418,1.784975886345,24.93616550438,0.4804853498936,244.70917926017702
189,2.210000008345,1.79534804821,24.92579334251,0.4864687025547,247.75647574746057
190,2.220500007272,1.805785059929,24.91535633079,0.4908298552036,249.97759255274298
191,2.231000006199,1.816244959831,24.90489643089,0.4943975508213,251.79460501035658
192,2.241500005126,1.826697230339,24.89444416038,0.4997877180576,254.53979464155375
193,2.252000004053,1.837157130241,24.88398426048,0.5043577551842,256.86729543775175
194,2.262000009418,1.847166895866,24.87397449486,0.5073999762535,258.41668590545544
195,2.272500008345,1.857615351677,24.86352603905,0.5117859244347,260.6504309716407
196,2.283000007272,1.868052363396,24.85308902733,0.5173782706261,263.49858949913653
197,2.293000012636,1.878069758415,24.84307163231,0.52233928442,266.02521307688454
198,2.303000003099,1.888159632683,24.83298175804,0.5283064246178,269.06425262441167
199,2.313000008464,1.898283839226,24.8228575515,0.5327519774437,271.32835408686964
200,2.322999998927,1.90836596489,24.81277542583,0.5375187397003,273.75604616905133
201,2.333000004292,1.91845202446,24.80268936626,0.5420048236847,276.04078998102784
202,2.343000009656,1.928511381149,24.79263000957,0.545107126236,277.620779696247
203,2.353500008583,1.938971281052,24.78217010967,0.5486967563629,279.44896330766375
204,2.36400000751,1.949354887009,24.77178650371,0.5530531406403,281.66765160128296
205,2.374500006437,1.959749937057,24.76139145366,0.5563776493073,283.3608099619387
206,2.385000005364,1.970074415207,24.75106697552,0.5618422031403,286.1438843757425
207,2.395500004292,1.980454206467,24.74068718426,0.5665247440338,288.52868286992003
208,2.406000003219,1.990936994553,24.73020439617,0.5710499286652,290.83334047789054
209,2.416500002146,2.00143122673,24.71971016399,0.5756742954254,293.18851112926876
210,2.42650000751,2.011437177658,24.70970421306,0.5817110538483,296.2630069476885
211,2.436499997973,2.02149271965,24.69964867107,0.5858128070831,298.3520127162056
212,2.447000011802,2.031983137131,24.68915825359,0.5910913944244,301.04037517351816
213,2.457500010729,2.042439222336,24.67870216839,0.5963671207428,303.727280523833
214,2.468000009656,2.052872419357,24.66826897136,0.6013271808624,306.2534183992484
215,2.478500008583,2.06329035759,24.65785103313,0.6050550937653,308.1520288501687
216,2.48900000751,2.073715925217,24.64742546551,0.6095955371857,310.46445769556306
217,2.499500006437,2.084114789963,24.63702660076,0.6135618686676,312.48449373167625
218,2.510000005364,2.094517469406,24.62662392132,0.6197674274445,315.64495886444723
219,2.520000010729,2.104538679123,24.6166027116,0.6248505115509,318.23375234184056
220,2.530000001192,2.114624738693,24.60651665203,0.6288425922394,320.2669023411893
221,2.540000006557,2.124630689621,24.5965107011,0.6325452327728,322.15264168001494
222,2.550500005484,2.135121107101,24.58602028362,0.6382567882538,325.06151300015813
223,2.561000004411,2.145581007004,24.57556038372,0.6422221660614,327.0810633339388
224,2.571500003338,2.155952453613,24.56518893711,0.6464102268219,329.2140251643477
225,2.582000002265,2.166347503662,24.55479388706,0.6524136066437,332.27152140082
226,2.592500001192,2.176830291748,24.54431109897,0.6575338840485,334.8792572695421
227,2.602500006557,2.186893463135,24.53424792759,0.6616327762604,336.96680593106134
228,2.612500011921,2.197025299072,24.52411609165,0.6656625270844,339.0191411728797
229,2.622500002384,2.207191467285,24.51394992344,0.668735742569,340.5843169666738
230,2.632500007749,2.217277526855,24.50386386387,0.6745617389679,343.5514725676994
231,2.642499998212,2.227352142334,24.49378924839,0.6804935932159,346.572541128563
232,2.652500003576,2.237468719482,24.48367267124,0.6845648288727,348.6460044222324
233,2.662500008941,2.247535705566,24.47360568516,0.6889507770538,350.87974948836677
234,2.673000007868,2.258026123047,24.46311526768,0.6944525241852,353.68176629349944
235,2.683500006795,2.268455505371,24.45268588535,0.6975133419037,355.2406279568675
236,2.694000005722,2.278854370117,24.4422870206,0.7022874355316,357.6720538757917
237,2.704500004649,2.289276123047,24.43186526768,0.7085568904877,360.86506106540867
