,time,travel,position,force,stress
0,0.0,0.0,17.89333508927,-0.007602077908814,-4.201070406102247
1,0.0,0.0,17.89333851654,-0.00759859289974,-4.199144515752082
2,0.0,0.0,17.89334544558,-0.008002161048353,-4.422164882856956
3,0.0,0.0,17.89333862084,-0.007841809652746,-4.333551281320365
4,0.0,0.0,17.89333245176,-0.007763369940221,-4.290203823045848
5,0.0,0.0,18.04605527885,-0.006103919818997,-3.3731562896873597
6,0.0,0.0,18.04605087656,-0.006315039470792,-3.489825512489492
7,0.008000001311302,5.148351192474e-06,18.0460457282,-0.007007883861661,-3.8727061013794035
8,0.01100000739098,-5.826354026794e-06,18.04605670291,-0.007383393123746,-4.080220529287798
9,0.01299999654293,2.481043338776e-06,18.04604839551,-0.007704781368375,-4.257826528538954
10,0.01399999856949,5.263835191727e-06,18.04604561272,-0.007898377254605,-4.36481174470479
11,0.1140000075102,-5.873829650227e-06,18.04605675039,-0.007258270867169,-4.01107530142307
12,0.2144999951124,1.655339292483e-05,18.04603432316,-0.00756746949628,-4.181945059132282
13,0.3145000040531,1.695223181741e-05,18.04603392432,-0.006351497489959,-3.5099729915372944
14,0.4150000065565,0.008435784839094,18.03761509172,-0.005505186971277,-3.0422837469577595
15,0.4375,0.01847892999649,18.02757194656,0.01211394648999,6.694425223029944
16,0.4490000009537,0.02857261896133,18.01747825759,0.02630843408406,14.538601838491143
17,0.457000002265,0.0386968255043,18.00735405105,0.02051629312336,11.337741196197934
18,0.4640000015497,0.04904991388321,17.99700096267,0.01628579385579,8.999877063627071
19,0.4705000072718,0.05942589044571,17.98662498611,0.01374759059399,7.597211800823452
20,0.4769999980927,0.07019859552383,17.97585228103,0.01399363856763,7.733183159304529
21,0.4829999953508,0.08024269342422,17.96580818313,0.01109256129712,6.129985979119772
22,0.4895000010729,0.09088951349258,17.95516136306,0.01114829163998,6.1607837553224645
23,0.4960000067949,0.1010938286781,17.94495704788,0.007282333914191,4.0243730544765555
24,0.5034999996424,0.1117520928383,17.93429878372,0.01355178933591,7.489007849132327
25,0.5115000009537,0.1222882866859,17.92376258987,0.02925689704716,16.167985363146496
26,0.519500002265,0.1328931450844,17.91315773147,0.03609665110707,19.94777934983933
27,0.5269999951124,0.1430936455727,17.90295723098,0.03969677165151,21.937282753916797
28,0.534500002861,0.1534734368324,17.89257743972,0.04219825938344,23.319658231765388
29,0.5419999957085,0.1637654900551,17.8822853865,0.04272906854749,23.612994698074534
30,0.5499999970198,0.1742635369301,17.87178733963,0.04351275041699,24.046074015235725
31,0.5585000067949,0.1845555901527,17.8614952864,0.04433747008443,24.501831694882185
32,0.5680000036955,0.1948171257973,17.85123375076,0.05097504332662,28.169896249149673
33,0.5785000026226,0.2049546837807,17.84109619278,0.06072350218892,33.55710255284078
34,0.5894999951124,0.2151532769203,17.83089759964,0.07053108513355,38.97698208555477
35,0.6000000089407,0.2253423333168,17.82070854324,0.07899399101734,43.65376439224458
36,0.609999999404,0.2358594536781,17.81019142288,0.08336563408375,46.069627598677094
37,0.6190000027418,0.2458730340004,17.80017784256,0.08430345356464,46.58788664767542
38,0.6280000060797,0.2558866143227,17.79016426223,0.08542378246784,47.207004296401124
39,0.6375000029802,0.266029894352,17.7800209822,0.08988125622272,49.670299372066204
40,0.6475000083447,0.2761579155922,17.76989296096,0.09569771587849,52.884599043977246
41,0.6580000072718,0.2863582372665,17.75969263929,0.1018081605434,56.26136110269226
42,0.6689999997616,0.2967780828476,17.74927279371,0.1093536317348,60.43114942932006
43,0.6794999986887,0.3068679571152,17.73918291944,0.1165405213833,64.40277794673237
44,0.6899999976158,0.3172935247421,17.72875735181,0.122338861227,67.60706422399467
45,0.7000000029802,0.327516913414,17.71853396314,0.1275201737881,70.47036806358909
46,0.7100000083447,0.3377631902695,17.70828768629,0.1328817307949,73.43327882852385
47,0.7199999988079,0.3478835821152,17.69816729444,0.1394430100918,77.05918172126047
48,0.730499997735,0.3583625555038,17.68768832105,0.1459127366543,80.63449062013134
49,0.7409999966621,0.3687919378281,17.67725893873,0.152464479208,84.25512330515521
50,0.7514999955893,0.3792213201523,17.6668295564,0.1599145829678,88.37220955487635
51,0.7615000009537,0.3893226385117,17.65672823804,0.1659170091152,91.68927827676089
52,0.7715000063181,0.3995765447617,17.64647433179,0.1701675355434,94.03820984547883
53,0.7814999967813,0.4097846746445,17.63626620191,0.1763406693935,97.44961528510146
54,0.7919999957085,0.4202789068222,17.62577196973,0.1833730638027,101.33586643786532
55,0.8025000095367,0.4306091070175,17.61544176954,0.1908574998379,105.47192543528612
56,0.8130000084639,0.440891623497,17.60515925306,0.1988378465176,109.88203523272101
57,0.823500007391,0.4513019323349,17.59474894422,0.2059865891933,113.83258291928225
58,0.8334999978542,0.4614032506943,17.58464762586,0.2126947343349,117.53964701047502
59,0.8435000032187,0.4715846776962,17.57446619886,0.2200456559658,121.60192310019333
60,0.8535000085831,0.4817394018173,17.56431147474,0.228018373251,126.00781673149116
61,0.8634999990463,0.491802573204,17.55424830335,0.2352968156338,130.030039242714
62,0.8739999979734,0.5022510290146,17.54379984754,0.2450605332851,135.4256778786792
63,0.8844999969006,0.5126994848251,17.53335139173,0.2535482347012,140.11616272541673
64,0.894500002265,0.5227435827255,17.52330729383,0.2611394822598,144.31124804897738
65,0.9045000076294,0.5328487157822,17.51320216077,0.2680021226406,148.1036895047634
66,0.9144999980927,0.5429499149323,17.50310096162,0.2768015265465,152.9664277960346
67,0.9245000034571,0.5529863834381,17.49306449312,0.2846979498863,157.33015976574077
68,0.9350000023842,0.5634806156158,17.48257026094,0.2926916480064,161.74764785392938
69,0.9455000013113,0.5739634037018,17.47208747285,0.3003992438316,166.00702971134268
70,0.9560000002384,0.5844271183014,17.46162375825,0.3090471625328,170.78605404728998
71,0.9664999991655,0.5949251651764,17.45112571138,0.3166746497154,175.00116616007077
72,0.9769999980927,0.6053621768951,17.44068869966,0.3262247443199,180.27875214375624
73,0.9874999970198,0.6157305240631,17.43032035249,0.3352598547935,185.27174691200204
74,0.9979999959469,0.6261179447174,17.41993293184,0.3452009558678,190.76541141113745
75,1.008000001311,0.6361467838287,17.40990409273,0.3539308905602,195.58975953323775
76,1.018000006676,0.6462481021881,17.39980277437,0.3619150519371,200.00197741371355
77,1.027999997139,0.6563723087311,17.38967856782,0.3693861365318,204.13065812032542
78,1.038000002503,0.6664164066315,17.37963446992,0.3783201575279,209.06778868704794
79,1.048500001431,0.6768229007721,17.36922797578,0.387404859066,214.0881885353228
80,1.059000000358,0.6870691776276,17.35898169893,0.3988031744957,220.38714076989703
81,1.069499999285,0.6972887516022,17.34876212495,0.4107164740562,226.97068421985563
82,1.079999998212,0.7076399326324,17.33841094392,0.4203295111656,232.28305357432382
83,1.090000003576,0.7177221775055,17.32832869905,0.428929746151,237.0357268718178
84,1.100000008941,0.7279226779938,17.31812819856,0.4369234442711,241.45321496000636
85,1.109999999404,0.7380545139313,17.30799636262,0.4452127814293,246.0340794866829
86,1.120499998331,0.74849152565,17.29755935091,0.454917371273,251.3970428349616
87,1.130999997258,0.7587912082672,17.28725966829,0.4676317572594,258.42328373119034
88,1.141499996185,0.7690870761871,17.27696380037,0.4798731207848,265.1881223258162
89,1.151999995112,0.7794668674469,17.26658400911,0.4908728003502,271.2667798788034
90,1.162000000477,0.789502620697,17.25654825586,0.5002777576447,276.4641598891779
91,1.172000005841,0.7996459007263,17.24640497583,0.509402513504,281.5066946097138
92,1.181999996305,0.8097624778748,17.23628839868,0.5175182819366,285.9916413563716
93,1.192499995232,0.8202300071716,17.22582086938,0.52792096138,291.74038390782147
94,1.20300000906,0.8305792808533,17.2154715957,0.5401737689972,298.51154675168056
95,1.213500007987,0.8408541679382,17.20519670862,0.5521976947784,305.15622461087514
96,1.224000006914,0.8513026237488,17.19474825281,0.564240694046,311.81144288549535
97,1.233999997377,0.8614077568054,17.18464311975,0.5741455554962,317.2850805953554
98,1.244000002742,0.8715739250183,17.17447695154,0.5849373340607,323.2488476206795
99,1.254000008106,0.8817324638367,17.16431841272,0.5958416461945,329.27480309676
100,1.263999998569,0.8918719291687,17.15417894739,0.6079494953156,335.9658587836834
101,1.274000003934,0.9019312858582,17.1441195907,0.6181709766388,341.6144673889222
102,1.284500002861,0.9123225212097,17.13372835535,0.6313583850861,348.9021105866986
103,1.295000001788,0.9226431846619,17.12340769189,0.644110918045,355.94943231361265
104,1.305500000715,0.9329657554626,17.11308512109,0.6565277576447,362.81124272983294
105,1.315999999642,0.9433264732361,17.10272440332,0.6678612232208,369.07435755204875
106,1.326499998569,0.9536681175232,17.09238275903,0.680846452713,376.25027234672336
107,1.336999997497,0.9641089439392,17.08194193262,0.6936523914337,383.3271072367627
108,1.347000002861,0.9741187095642,17.07193216699,0.7045967578888,389.37519758515947
109,1.357000008225,0.9842352867126,17.06181558984,0.7161056995392,395.73528422896976
110,1.366999998689,0.9943060874939,17.05174478906,0.7288239002228,402.76363320823936
111,1.377499997616,1.004762172699,17.04128870386,0.7403481006622,409.1321521843238
112,1.387999996543,1.015050411224,17.03100046533,0.7540771961212,416.71914317904725
113,1.39849999547,1.025292873383,17.02075800317,0.768435716629,424.6539678814872
114,1.409000009298,1.035600066185,17.01045081037,0.782368183136,432.3533460552765
115,1.419500008225,1.046059966087,16.99999091047,0.7969098091125,440.38935874539277
116,1.429499998689,1.056165099144,16.98988577741,0.8114628791809,448.43169568479755
117,1.439500004053,1.066361784935,16.97968909162,0.8245129585266,455.64344789177534
118,1.449500009418,1.076547026634,16.96950384992,0.8383374214172,463.2831409634054
119,1.459499999881,1.086644530296,16.95940634626,0.851818561554,470.7331065581494
120,1.469500005245,1.096684813499,16.94936606306,0.8653988838196,478.2378823128409
121,1.479499995708,1.106694579124,16.93935629743,0.8787083625793,485.59298416903135
122,1.490000009537,1.117139220238,16.92891165632,0.8927083015442,493.3296490622559
123,1.500500008464,1.127522826195,16.91852805036,0.9077305793762,501.6312802201122
124,1.511000007391,1.137952208519,16.90809866804,0.9228405952454,509.98139728879323
125,1.520999997854,1.148000121117,16.89805075544,0.9375996589661,518.1375707143408
126,1.531000003219,1.158170104027,16.88788077253,0.9523434638977,526.2853118075587
127,1.541000008583,1.168370604515,16.87768027204,0.9675679206848,534.6986713685169
128,1.550999999046,1.17850625515,16.86754462141,0.9818272590637,542.578685910954
129,1.561499997973,1.188916563988,16.85713431257,0.9986653327942,551.8837646135751
130,1.571999996901,1.199168562889,16.84688231367,1.014828205109,560.8157126117125
131,1.582499995828,1.209418654442,16.83663222211,1.03148317337,570.0196033262152
132,1.592999994755,1.219874739647,16.82617613691,1.048054218292,579.1771162134866
133,1.603000000119,1.229983687401,16.81606718916,1.062744617462,587.2953441436899
134,1.613000005484,1.240165114403,16.80588576215,1.076920032501,595.1289808583984
135,1.622999995947,1.250228285789,16.79582259077,1.093002796173,604.0166591117927
136,1.633499994874,1.260596632957,16.7854542436,1.109802722931,613.3006569837285
137,1.644000008702,1.270799040794,16.77525183576,1.125824451447,622.1546059080263
138,1.654500007629,1.280986189842,16.76506468671,1.144024372101,632.2122702690137
139,1.665000006557,1.291295051575,16.75475582498,1.160852074623,641.5116176205979
140,1.675500005484,1.30175113678,16.74429973978,1.177274346352,650.5869152680584
141,1.685499995947,1.311814308167,16.73423656839,1.193383812904,659.4893501025181
142,1.695500001311,1.321888923645,16.72416195291,1.208848595619,668.035518897429
143,1.706000000238,1.332360267639,16.71369060892,1.224622368813,676.752442421858
144,1.716499999166,1.342747688293,16.70330318826,1.243383049965,687.1199949951626
145,1.726999998093,1.353154182434,16.69289669412,1.26165163517,697.2156048516599
146,1.73749999702,1.363629341125,16.68242153543,1.278878808022,706.7357080283763
147,1.747500002384,1.373642921448,16.67240795511,1.297120690346,716.8165613032556
148,1.757500007749,1.383770942688,16.66227993387,1.314977288246,726.6844981872465
149,1.767499998212,1.393982887268,16.65206798929,1.330823540688,735.4414752901157
150,1.777500003576,1.404088020325,16.64196285623,1.346406579018,744.0529946602892
151,1.788000002503,1.414521217346,16.63152965921,1.365468621254,754.5870857966985
152,1.798500001431,1.424889564514,16.62116131204,1.38559114933,765.7072240286459
153,1.809000000358,1.43533039093,16.61072048563,1.405896782875,776.9285502484353
154,1.819000005722,1.445374488831,16.60067638773,1.424871087074,787.4141554741303
155,1.828999996185,1.455590248108,16.59046062845,1.44207918644,796.9237182356421
156,1.83900000155,1.465859413147,16.58019146341,1.458802819252,806.1655544456547
157,1.849000006914,1.476033210754,16.5700176658,1.476159691811,815.7573324469773
158,1.859500005841,1.486500740051,16.5595501365,1.495587944984,826.4937995585182
159,1.870000004768,1.496817588806,16.54923328775,1.516320824623,837.9512310830881
160,1.880500003695,1.507117271423,16.53893360513,1.537686944008,849.7586043984157
161,1.891000002623,1.517596244812,16.52845463174,1.557248711586,860.5688544180458
162,1.901000007987,1.527716636658,16.5183342399,1.574349999428,870.0193908530861
163,1.91099999845,1.537898898125,16.50815197843,1.592034935951,879.7924639985787
164,1.921000003815,1.548072695732,16.49797818082,1.608998894691,889.1671094425994
165,1.931000009179,1.558124423027,16.48792645353,1.628739953041,900.0764393671412
166,1.941500008106,1.568557620049,16.47749325651,1.64909517765,911.3251706666833
167,1.952000007033,1.578945040703,16.46710583585,1.670503258705,923.1557328959027
168,1.96250000596,1.589233279228,16.45681759733,1.689679741859,933.7530665246443
169,1.973000004888,1.599454760551,16.446596116,1.709710717201,944.822610762947
170,1.983500003815,1.609742999077,16.43630787748,1.729119896889,955.548537459836
171,1.994000002742,1.620176196098,16.42587468046,1.749257683754,966.6771080240574
172,2.004000008106,1.630243182182,16.41580769437,1.768552422523,977.3397922280616
173,2.013999998569,1.640401721001,16.40564915556,1.788312554359,988.2596625678078
174,2.024000003934,1.650556445122,16.39549443143,1.808850884438,999.6095818557446
175,2.034000009298,1.660619616508,16.38543126005,1.828641533852,1010.546316860039
176,2.044500008225,1.670974612236,16.37507626432,1.84864962101,1021.6032125996544
177,2.055000007153,1.681209445,16.36484143156,1.869046807289,1032.8751328130886
178,2.06550000608,1.691461443901,16.35458943265,1.891164422035,1045.097798494436
179,2.076000005007,1.701877474785,16.34417340177,1.911306023598,1056.2284771421405
180,2.08599999547,1.711967349052,16.3340835275,1.931359887123,1067.310669878578
181,2.096000000834,1.722205996513,16.32384488004,1.951142907143,1078.243188717012
182,2.106000006199,1.732471346855,16.3135795297,1.970288872719,1088.823657681205
183,2.115999996662,1.742622256279,16.30342862028,1.988767266273,1099.0352121066098
184,2.126499995589,1.753089785576,16.29296109098,2.009629964828,1110.5643843332223
185,2.137000009418,1.763473391533,16.28257748502,2.031148672104,1122.4560809718434
186,2.147500008345,1.773929476738,16.27212139982,2.053678274155,1134.9064196256975
187,2.157499998808,1.784023165703,16.26202771085,2.074056386948,1146.1677994239271
188,2.167500004172,1.794215798378,16.25183507818,2.095690965652,1158.1235290852196
189,2.177500009537,1.804443001747,16.24160787481,2.117320299149,1170.0763601332428
190,2.1875,1.81460916996,16.2314417066,2.138247728348,1181.6413038944459
191,2.197999998927,1.825095772743,16.22095510381,2.159503221512,1193.3875428003714
192,2.208499997854,1.835370659828,16.21068021673,2.18288731575,1206.3100920632342
193,2.218999996781,1.845588326454,16.2004625501,2.205504655838,1218.8089166278023
194,2.229499995708,1.855851769447,16.19019910711,2.228263139725,1231.385740266321
195,2.240000009537,1.86619913578,16.17985174078,2.250647783279,1243.7559717627419
196,2.250500008464,1.876681923866,16.16936895269,2.272422075272,1255.7889099676454
197,2.260499998927,1.886741280556,16.159309596,2.292685747147,1266.9870472735429
198,2.270500004292,1.896815896034,16.14923498052,2.312598466873,1277.9912409360304
199,2.280499994755,1.906871438026,16.13917943853,2.333636522293,1289.6173191066353
200,2.290500000119,1.916907906532,16.12914297002,2.355769395828,1301.8484171202572
201,2.300999999046,1.927390694618,16.11866018194,2.378878831863,1314.6191844016328
202,2.311499997973,1.937862038612,16.10818883794,2.402575731277,1327.7145964769436
203,2.321500003338,1.947879433632,16.09817144292,2.423854112625,1339.4734838815568
204,2.331500008702,1.957904458046,16.08814641851,2.444037675858,1350.6273514431534
205,2.341499999166,1.967944741249,16.07810613531,2.464652299881,1362.0194323919081
206,2.35150000453,1.977958321571,16.06809255498,2.4868080616,1374.2631789042173
207,2.362000003457,1.988456368446,16.05759450811,2.510230302811,1387.2068089980412
208,2.372000008821,1.998530983925,16.04751989263,2.533911943436,1400.293788741078
209,2.381999999285,2.008769750595,16.03728112596,2.556151628494,1412.5839130806187
210,2.392000004649,2.019046545029,16.02700433153,2.577498674393,1424.3807459807417
211,2.401999995112,2.029281377792,16.01676949876,2.600333452225,1436.9997312806308
212,2.412000000477,2.039437770844,16.00661310571,2.622858285904,1449.4474348304072
213,2.422499999404,2.04990530014,15.99614557642,2.64676117897,1462.656683391695
214,2.432999998331,2.060176372528,15.98587450403,2.672312021255,1476.776623842456
215,2.443499997258,2.07048368454,15.97556719202,2.697534799576,1490.7152691490473
216,2.453999996185,2.080943584442,15.96510729211,2.720445871353,1503.376416110307
217,2.46400000155,2.091025829315,15.95502504724,2.743326425552,1516.0206984070182
218,2.474000006914,2.101218700409,15.94483217615,2.764559030533,1527.754288814809
219,2.483999997377,2.111384868622,15.93466600793,2.786859750748,1540.0781424839986
220,2.494000002742,2.121444225311,15.92460665124,2.810526132584,1553.1566898947613
221,2.504500001669,2.131942272186,15.91410860437,2.836206674576,1567.3483051701287
222,2.514500007033,2.141971111298,15.90407976526,2.858453989029,1579.6426456760823
223,2.524499997497,2.152003765106,15.89404711145,2.88147187233,1592.3628189638137
224,2.534500002861,2.16207075119,15.88398012537,2.904390573502,1605.0281820914863
225,2.544500008225,2.172152996063,15.87389788049,2.926271677017,1617.1201466217562
226,2.554499998689,2.182219982147,15.86383089441,2.948145151138,1629.2078949861652
227,2.564500004053,2.192233562469,15.85381731409,2.971742868423,1642.248496901418
228,2.57500000298,2.202708721161,15.8433421554,2.99613404274,1655.7275800971356
229,2.585500001907,2.213199138641,15.83285173791,3.020929574966,1669.4301200983934
230,2.595500007272,2.223239421844,15.82281145471,3.042879343033,1681.5600301247257
231,2.606000006199,2.233699321747,15.81235155481,3.065752267838,1694.2000962555765
232,2.616500005126,2.244082927704,15.80196794885,3.089609384537,1707.3840478200418
233,2.627000004053,2.254554271698,15.79149660486,3.113794565201,1720.74929452923
234,2.637000009418,2.264628887177,15.78142198938,3.136095285416,1733.0731481984192
235,2.646999999881,2.274726390839,15.77132448572,3.159464120865,1745.9872651290077
236,2.657000005245,2.284915447235,15.76113542932,3.1825735569,1758.7580324103835
237,2.666999995708,2.29512834549,15.75092253107,3.206146717072,1771.7850635411849
238,2.677000001073,2.30525636673,15.74079450983,3.229660511017,1784.7792876286537
239,2.6875,2.315742969513,15.73030790704,3.255341053009,1798.970902904021
240,2.697999998927,2.326160907745,15.71988996881,3.280922412872,1813.1077080193304
