,time,travel,position,force,stress
0,0.0,0.0,24.09961516768,-0.009073069319129,-5.967040624606603
1,0.0,0.0,24.09961761147,-0.008946230635047,-5.8836232545780005
2,0.0,0.0,24.09961338047,-0.008018603548408,-5.273555336460105
3,0.0,0.0,24.0996128105,-0.007442733738571,-4.894825886819823
4,0.0,0.0,24.09961097021,-0.007515451405197,-4.942649754975346
5,0.0,0.0,24.11159082075,-0.00609880965203,-4.010973979740235
6,0.0,0.0,24.11158687883,-0.006147596053779,-4.043059091285774
7,0.008000001311302,4.91552054882e-06,24.11158196331,-0.00651444029063,-4.284319726160198
8,0.01100000739098,6.83031976223e-06,24.11158004851,-0.006650923751295,-4.374080128702029
9,0.01300001144409,-1.886859536171e-06,24.11158876569,-0.006939887069166,-4.564121204782212
10,0.01400001347065,-2.325512468815e-06,24.11158920434,-0.007061480544508,-4.644088984321062
11,0.1145000010729,6.065762136132e-06,24.11158081307,-0.007242486812174,-4.763130481137833
12,0.2145000100136,2.136501279892e-05,24.11156551382,-0.006371137686074,-4.190074610982386
13,0.315000012517,7.675969754928e-06,24.11157920286,-0.004862644243985,-3.1979911897833273
14,0.4155000001192,-4.804160198546e-06,24.11159168299,-0.007547636050731,-4.963816471621612
15,0.5120000094175,0.01031477935612,24.10127209948,0.01693821325898,11.139670939303096
16,0.522000014782,0.02054198272526,24.09104489611,0.05262852087617,34.611939029163075
17,0.5280000120401,0.03094466216862,24.08064221666,0.05567241087556,36.613799110282514
18,0.5330000072718,0.04189284518361,24.06969403365,0.05358243361115,35.239294099619165
19,0.5375000089407,0.05320723727345,24.05837964156,0.05919194594026,38.928474329010854
20,0.5415000021458,0.06436140835285,24.04722547048,0.06824421882629,44.88183786631834
21,0.5450000017881,0.07500441372395,24.03658246511,0.07979512214661,52.47846332336592
22,0.5485000014305,0.08650954067707,24.02507733815,0.09159779548645,60.24066912392157
23,0.5515000075102,0.09710676968098,24.01448010915,0.1015160083771,66.76353114121373
24,0.5545000135899,0.1084059029818,24.00318097585,0.1106331348419,72.75954661091149
25,0.5575000047684,0.1204069405794,23.99117993825,0.119681596756,78.71040380515846
26,0.5600000023842,0.1309049874544,23.98068189138,0.1265251636505,83.21117859705816
27,0.5625,0.1418302804232,23.96975659841,0.1279981732368,84.1799255263201
28,0.565000012517,0.1530454903841,23.95854138845,0.1254613995552,82.51157812577439
29,0.5675000101328,0.1644132882357,23.9471735906,0.12241345644,80.50705245202649
30,0.5700000077486,0.1758116036654,23.93577527517,0.1176298260689,77.36102592522863
31,0.5725000053644,0.1870420724154,23.92454480642,0.1154831051826,75.94920261740523
32,0.5750000029802,0.1980284005404,23.91355847829,0.1215599179268,79.94570999956746
33,0.577500000596,0.2087553292513,23.90283154958,0.1337211728096,87.9437423499727
34,0.580000013113,0.2192228585482,23.89236402028,0.1489799618721,97.97891468424304
35,0.5825000107288,0.2295072823763,23.88207959646,0.1636741757393,107.6427856421536
36,0.5850000083447,0.2396086007357,23.8719782781,0.1764457821846,116.04222488592966
37,0.5880000144243,0.2515257298946,23.86006114894,0.1901786923409,125.07387998680585
38,0.5910000056028,0.2631910741329,23.8483958047,0.2041710019112,134.27613301732353
39,0.5940000116825,0.2746046483517,23.83698223048,0.2169883847237,142.7056777781106
40,0.597000002861,0.2857740819454,23.82581279689,0.2296379208565,151.02483564321253
41,0.6000000089407,0.296653598547,23.81493328028,0.2421653866768,159.26371212964023
42,0.6030000001192,0.3072126805782,23.80437419825,0.2528999447823,166.32345586681998
43,0.6060000061989,0.317420810461,23.79416606837,0.2622612118721,172.48003409386607
44,0.6095000058413,0.3288114964962,23.78277538234,0.2744453549385,180.4931192027768
45,0.6130000054836,0.339622348547,23.77196453028,0.2941139340401,193.42845634167594
46,0.616500005126,0.3499678075314,23.7616190713,0.3205116391182,210.78930447994722
47,0.6200000047684,0.3600843846798,23.75150249415,0.3473060727119,228.41106709889303
48,0.6235000044107,0.3702009618282,23.741385917,0.3708656430244,243.90537318300645
49,0.6270000040531,0.3804319798946,23.73115489894,0.3905037045479,256.8206399772535
50,0.6305000036955,0.3908766210079,23.72071025782,0.4067390561104,267.49806334091716
51,0.6340000033379,0.4015425145626,23.71004436427,0.4224861264229,277.8543611898841
52,0.6375000029802,0.4124067723751,23.69918010646,0.4382026791573,288.190588694199
53,0.6410000026226,0.4234465062618,23.68814037257,0.4515159726143,296.94627655582934
54,0.644500002265,0.4346006810665,23.67698619777,0.4646080136299,305.55645441861685
55,0.6480000019073,0.4457930028439,23.66579387599,0.4780357480049,314.38740607277475
56,0.6515000015497,0.4570082128048,23.65457866603,0.4929741024971,324.2118397880336
57,0.6550000011921,0.4682005345821,23.64338634425,0.5099876523018,335.4010569407533
58,0.6585000008345,0.4793699681759,23.63221691066,0.5263603329659,346.16879685545
59,0.6620000004768,0.4904936254025,23.62109325343,0.5425499081612,356.8161147021026
60,0.6655000001192,0.5015867352486,23.61000014358,0.5568931698799,366.2491766962839
61,0.6690000146627,0.512565433979,23.59902144485,0.5717857480049,376.04350489453174
62,0.6725000143051,0.5234144330025,23.58817244583,0.5877006649971,386.510189639184
63,0.6760000139475,0.5341413617134,23.57744551712,0.6047294735909,397.7094419642625
64,0.6795000135899,0.5447462201118,23.56684065872,0.622841656208,409.6211915249839
65,0.6830000132322,0.5552442669868,23.55634261185,0.6410911679268,421.62325763680406
66,0.6865000128746,0.5656812787056,23.54590560013,0.6591880917549,433.5249720252323
67,0.690000012517,0.5760725140572,23.53551436477,0.6784141659737,446.16928916644576
68,0.6935000121593,0.5864790081978,23.52510787063,0.6971519589424,458.49248079289686
69,0.6970000118017,0.5969007611275,23.5146861177,0.7138450741768,469.47095932660505
70,0.7005000114441,0.6073530316353,23.5042338472,0.7309044003487,480.6902819963357
71,0.7040000110865,0.6178434491158,23.49374342972,0.746865093708,491.1870722579332
72,0.7075000107288,0.6283414959908,23.48324538284,0.7634208798409,502.0752342406741
73,0.7110000103712,0.6388319134712,23.47275496536,0.7797325253487,512.8028334660008
74,0.7145000100136,0.6493070721626,23.46227980667,0.7961204648018,523.5806085529907
75,0.718000009656,0.6597593426704,23.45182753616,0.8129051327705,534.6192981206552
76,0.7215000092983,0.6701963543892,23.44139052444,0.8302696347237,546.0393242371042
77,0.7250000089407,0.6806104779243,23.43097640091,0.8476341366768,557.4593503534874
78,0.7285000085831,0.6909935474396,23.42059333139,0.8652743697166,569.0607151699219
79,0.7320000082254,0.7013771533966,23.41020972544,0.8824862837791,580.3803895629788
80,0.7355000078678,0.7117455005646,23.39984137827,0.8994845747948,591.5595715434054
81,0.7390000075102,0.722106218338,23.38948066049,0.9153842329979,602.0162211156985
82,0.7425000071526,0.7324059009552,23.37918097788,0.9313907027245,612.5431168943728
83,0.7460000067949,0.7426826953888,23.36890418344,0.9504184126854,625.0569767951832
84,0.7495000064373,0.7529366016388,23.35865027719,0.969369828701,637.5206608343306
85,0.7530000060797,0.7631905078888,23.34839637094,0.986947953701,649.08117936341
86,0.756500005722,0.7734596729279,23.3381272059,1.005350112915,661.183636398419
87,0.7600000053644,0.783759355545,23.32782752329,1.023019790649,672.8043659612574
88,0.7635000050068,0.7940971851349,23.3174896937,1.040857315063,684.5354824199784
89,0.7670000046492,0.8044655323029,23.30712134653,1.058221817017,695.9555085369534
90,0.7705000042915,0.8148491382599,23.29673774057,1.075387954712,707.2450774128021
91,0.7740000039339,0.825263261795,23.28632361704,1.093362808228,719.0665104228192
92,0.7775000035763,0.8357002735138,23.27588660532,1.110910415649,730.6069586066545
93,0.7810000032187,0.8461601734161,23.26542670542,1.129068374634,742.5488136848473
94,0.784500002861,0.8566353321075,23.25495154672,1.146402359009,753.9487694565785
95,0.7880000025034,0.867125749588,23.24446112924,1.164499282837,765.8504838449409
96,0.7915000021458,0.877623796463,23.23396308237,1.183252334595,778.1837106438824
97,0.7950000017881,0.8881523609161,23.22343451792,1.20107460022,789.9047919303101
98,0.7985000014305,0.8986885547638,23.21289832407,1.217691421509,800.8330946022895
99,0.8020000010729,0.909232378006,23.20235450083,1.235116958618,812.2932614077796
100,0.8055000007153,0.9197227954865,23.19186408335,1.252481460571,823.713287524097
101,0.8090000003576,0.9302055835724,23.18138129526,1.27024269104,835.3942281213522
102,0.8125,0.9406425952911,23.17094428354,1.288293838501,847.2658369928351
103,0.8160000145435,0.9510490894318,23.1605377894,1.305826187134,858.796250005035
104,0.8195000141859,0.9614098072052,23.15017707163,1.323541641235,870.447085084753
105,0.8230000138283,0.9717247486115,23.13986213022,1.340478897095,881.586126376204
106,0.8265000134706,0.981986284256,23.12960059458,1.358575820923,893.4878407645665
107,0.830000013113,0.9921944141388,23.11939246469,1.376916885376,905.5501179102772
108,0.8335000127554,1.002379655838,23.10920722299,1.396203994751,918.234575740795
109,0.8370000123978,1.012572526932,23.0990143519,1.415216445923,930.738400469378
110,0.8405000120401,1.022780656815,23.08880622202,1.433389663696,942.6902907192061
111,0.8440000116825,1.033019304276,23.07856757456,1.450479507446,953.929683733589
112,0.8475000113249,1.043265581131,23.0683212977,1.46799659729,965.4500615734958
113,0.8510000109673,1.053519487381,23.05806739145,1.485986709595,977.281529755806
114,0.8545000106096,1.06378865242,23.04779822641,1.504266738892,989.3036662123441
115,0.858000010252,1.074080705643,23.03750617319,1.522607803345,1001.3659433580548
116,0.8615000098944,1.08438038826,23.02720649057,1.540674209595,1013.2475874018309
117,0.8650000095367,1.094702959061,23.01688391977,1.559457778931,1025.600884545359
118,0.8685000091791,1.105040788651,23.00654609018,1.578744888306,1038.2853423758766
119,0.8720000088215,1.115439653397,22.99614722544,1.598672866821,1051.3912774440225
120,0.8755000084639,1.125876665115,22.98571021372,1.61741065979,1063.714469070671
121,0.8790000081062,1.136382341385,22.97520453745,1.635004043579,1075.2850227720437
122,0.8825000077486,1.146926164627,22.9646607142,1.652719497681,1086.935857852419
123,0.886000007391,1.157477617264,22.95410926157,1.670480728149,1098.6167984490166
124,0.8895000070333,1.168029069901,22.94355780893,1.688638687134,1110.5586535272093
125,0.8930000066757,1.178565263748,22.93302161508,1.707132339478,1122.7212823965094
126,0.8965000063181,1.189070940018,22.92251593881,1.725458145142,1134.773524369927
127,0.9000000059605,1.199553728104,22.91203315073,1.745386123657,1147.8794594380731
128,0.9035000056028,1.21003651619,22.90155036264,1.764810562134,1160.654233819887
129,0.9070000052452,1.220504045486,22.89108283335,1.783487319946,1172.937284756705
130,0.9105000048876,1.230963945389,22.88062293344,1.802713394165,1185.58160189805
131,0.91400000453,1.241416215897,22.87017066294,1.821207046509,1197.74423076735
132,0.9175000041723,1.251876115799,22.85971076303,1.839838027954,1209.9971761872887
133,0.9210000038147,1.262328386307,22.84925849253,1.857950210571,1221.9089257479443
134,0.9245000034571,1.272757768631,22.8388291102,1.876581192017,1234.1618711685403
135,0.9280000030994,1.283171892166,22.82841498667,1.896066665649,1246.9767862388692
136,0.9315000027418,1.293593645096,22.81799323374,1.915307998657,1259.6311385525075
137,0.9350000023842,1.303992509842,22.80759436899,1.933038711548,1271.2920088051765
138,0.9385000020266,1.314376115799,22.79721076303,1.951578140259,1283.4847431913558
139,0.9420000016689,1.324759721756,22.78682715708,1.970163345337,1295.707583094415
140,0.9455000013113,1.335097551346,22.77648932749,1.990106582642,1308.8235533355116
141,0.9490000009537,1.34544301033,22.7661438685,2.009286880493,1321.4377649593198
142,0.952500000596,1.355765581131,22.7558212977,2.028177261353,1333.8613083095574
143,0.9560000002384,1.366088151932,22.7454987269,2.047952651978,1346.8668916547717
144,0.959500014782,1.376441240311,22.73514563852,2.067209243774,1359.5312791400456
145,0.9630000144243,1.386809587479,22.72477729135,2.085901260376,1371.8243652498145
146,0.9665000140667,1.397185564041,22.71440131479,2.105630874634,1384.7998430781493
147,0.9700000137091,1.407607316971,22.70397956186,2.124597549438,1397.273562289195
148,0.9735000133514,1.418051958084,22.69353492075,2.143808364868,1409.9078442582472
149,0.9770000129938,1.4285197258,22.68306715303,2.162403106689,1422.1369561439071
150,0.9805000126362,1.438979625702,22.67260725313,2.181262969971,1434.5404291495586
151,0.9840000122786,1.449447154999,22.66213972383,2.202045440674,1448.2083338687526
152,0.9875000119209,1.459937572479,22.65164930635,2.222339630127,1461.55511307325
153,0.9910000115633,1.470443248749,22.64114363008,2.242588043213,1474.8717867608675
154,0.9945000112057,1.481009960175,22.63057691866,2.262836456299,1488.1884604484856
155,0.998000010848,1.491622447968,22.61996443086,2.282154083252,1500.8929886235896
156,1.00150001049,1.502295970917,22.60929090792,2.300693511963,1513.085723009769
157,1.005000010133,1.512969493866,22.59861738497,2.319095611572,1525.1881408446527
158,1.008500009775,1.523643016815,22.58794386202,2.337879180908,1537.5414379881806
159,1.012000009418,1.534301280975,22.57728559786,2.358020782471,1550.7878654697463
160,1.01550000906,1.544944286346,22.56664259249,2.377933502197,1563.883765365599
161,1.019000008702,1.555587291718,22.55599958711,2.397541046143,1576.7789618155884
162,1.022500008345,1.566192150116,22.54539472872,2.417514801025,1589.915002400614
163,1.026000007987,1.576781749725,22.53480512911,2.437702178955,1603.1915353990591
164,1.029500007629,1.587356090546,22.52423078829,2.458148956299,1616.638666327146
165,1.033000007272,1.597892284393,22.51369459444,2.478137969971,1629.7847420851224
166,1.036500006914,1.608413219452,22.50317365938,2.498722076416,1643.3221895638476
167,1.040000006557,1.618918895721,22.49266798311,2.519504547119,1656.9900942830413
168,1.043500006199,1.629424571991,22.48216230684,2.539325714111,1670.0257831451352
169,1.047000005841,1.639922618866,22.47166425997,2.559162139893,1683.07150718018
170,1.050500005484,1.650397777557,22.46118910127,2.57971572876,1696.5888843143189
171,1.054000005126,1.66085767746,22.45072920137,2.600452423096,1710.2266835166336
172,1.057500004768,1.671317577362,22.44026930147,2.621189117432,1723.8644827189478
173,1.061000004411,1.681777477264,22.42980940157,2.641025543213,1736.9102067533347
174,1.064500004053,1.692206859589,22.41938001924,2.660556793213,1749.755227341201
175,1.068000003695,1.702620983124,22.40896589571,2.680759429932,1763.0417955119392
176,1.071500003338,1.713027477264,22.39855940157,2.701221466064,1776.4989616116616
177,1.07500000298,1.723449230194,22.38813764864,2.721424102783,1789.7855297823999
178,1.078500002623,1.733893871307,22.37769300752,2.741641998291,1803.0821331254313
179,1.082000002265,1.744376659393,22.36721021944,2.76216506958,1816.5794399149838
180,1.085500001907,1.754912853241,22.35667402559,2.781711578369,1829.434495675143
181,1.08900000155,1.765464305878,22.34612257295,2.800815582275,1841.9985314374849
182,1.092500001192,1.776038646698,22.33554823213,2.820774078369,1855.124536850875
183,1.096000000834,1.786620616913,22.32496626192,2.840900421143,1868.3609291601476
184,1.099500000477,1.797217845917,22.31436903292,2.860584259033,1881.3063014709453
185,1.103000000119,1.807822704315,22.30376417452,2.880527496338,1894.4222717120422
186,1.106500014663,1.818450450897,22.29313642793,2.900424957275,1907.5081364356017
187,1.110000014305,1.829055309296,22.28253156954,2.920475006104,1920.6943528834086
188,1.113500013947,1.839683055878,22.27190382295,2.941318511963,1934.4023982917752
189,1.11700001359,1.850318431854,22.26126844698,2.962589263916,1948.3914285256658
190,1.120500013232,1.860953807831,22.250633071,2.983234405518,1961.9690166942214
191,1.124000012875,1.871581554413,22.24000532442,3.003269195557,1975.1451979690771
192,1.127500012517,1.882209300995,22.22937757784,3.023807525635,1988.652539930923
193,1.131000012159,1.892829418182,22.21875746065,3.044239044189,2002.0896356860587
194,1.134500011802,1.903441905975,22.20814497286,3.065158843994,2015.8478569565489
195,1.138000011444,1.914031505585,22.19755537325,3.085987091064,2029.5458671926224
196,1.141500011086,1.9246134758,22.18697340303,3.106494903564,2043.0331388098818
197,1.145000010729,1.93518781662,22.17639906221,3.127155303955,2056.6207621507306
198,1.148500010371,1.945746898651,22.16583998018,3.148532867432,2070.6800385913307
199,1.152000010014,1.956313610077,22.15527326876,3.169101715088,2084.2074508977626
200,1.155500009656,1.966865062714,22.14472181612,3.190250396729,2098.116199753308
201,1.159000009298,1.977408885956,22.13417799288,3.211048126221,2111.7941396447955
202,1.162500008941,1.987952709198,22.12363416963,3.232135772705,2125.66274781051
203,1.166000008583,1.998473644257,22.11311323458,3.252506256104,2139.0597028771313
204,1.169500008225,2.008986949921,22.10259992891,3.273654937744,2152.968451732019
205,1.173000007868,2.019500255585,22.09208662325,3.294925689697,2166.9574819659097
206,1.17650000751,2.030013561249,22.08157331758,3.316059112549,2180.8561956491617
207,1.180000007153,2.040526866913,22.07106001192,3.337604522705,2195.025858984987
208,1.183500006795,2.051032543182,22.06055433565,3.358829498291,2208.984783701998
209,1.187000006437,2.061545848846,22.05004102999,3.380725860596,2223.3852560018818
210,1.19050000608,2.072051525116,22.03953535372,3.402591705322,2237.765657956521
211,1.194000005722,2.082580089569,22.02900678926,3.425022125244,2252.5173612879807
212,1.197500005364,2.093108654022,22.01847822481,3.447681427002,2267.4195922044955
213,1.201000005007,2.103675365448,22.00791151338,3.469944000244,2282.0609086400723
214,1.204500004649,2.114257335663,21.99732954317,3.492038726807,2296.591838180425
215,1.208000004292,2.124862194061,21.98672468477,3.513721466064,2310.851818066889
216,1.211500003934,2.135489940643,21.97609693819,3.535678863525,2325.2924310559447
217,1.215000003576,2.146148204803,21.96543867403,3.557605743408,2339.7129737004148
218,1.218500003219,2.156821727753,21.95476515108,3.57905960083,2353.822426002481
219,1.222000002861,2.167495250702,21.94409162813,3.600772857666,2368.1024762341885
220,1.225500002503,2.178161144257,21.93342573458,3.622989654541,2382.7136871528865
221,1.229000002146,2.188810348511,21.92277653032,3.644572973251,2396.908281619929
222,1.232500001788,2.199445724487,21.91214115434,3.666057348251,2411.0378042665816
223,1.236000001431,2.210050582886,21.90153629595,3.688853979111,2426.0303517343923
224,1.239500001073,2.220655441284,21.89093143755,3.71165060997,2441.0228992015454
225,1.243000000715,2.231260299683,21.88032657915,3.733638525009,2455.483582535188
226,1.246500000358,2.241849899292,21.86973697954,3.754710912704,2469.34215552861
227,1.25,2.252401351929,21.8591855269,3.776180028915,2483.461643002969
228,1.253500014544,2.262907028198,21.84867985063,3.798793554306,2498.3337684026046
229,1.257000014186,2.27338218689,21.83820469194,3.822047948837,2513.627371039868
230,1.260500013828,2.283849716187,21.82773716265,3.844753026962,2528.5597074732627
231,1.264000013471,2.294309616089,21.81727726274,3.867854833603,2543.7529583875944
232,1.267500013113,2.304754257202,21.80683262163,3.891002416611,2558.976314818806
233,1.271000012755,2.315214157104,21.79637272173,3.913264989853,2573.617631254383
234,1.274500012398,2.32569694519,21.78588993364,3.935725927353,2588.389404930429
235,1.27800001204,2.33620262146,21.77538425737,3.957988500595,2603.0307213660058
236,1.281500011683,2.346723556519,21.76486332231,3.980357885361,2617.742284008293
237,1.285000011325,2.357252120972,21.75433475786,4.001689910889,2631.7716117312007
238,1.288500010967,2.367780685425,21.74380619341,4.023357391357,2646.0215564453715
239,1.29200001061,2.3782787323,21.73330814653,4.046123504639,2660.9940335685956
240,1.295500010252,2.388799667358,21.72278721147,4.069652557373,2676.4682693077943
