,time,travel,position,force,stress
0,0.0,0.0,25.18120188352,-0.008932933211327,-4.936529433654342
1,0.0,0.0,25.18120322462,-0.008805617690086,-4.866172160953557
2,0.0,0.0,25.18121277813,-0.007180735934526,-3.9682278438104635
3,0.0,0.0,25.18121196881,-0.006641090381891,-3.670008200687485
4,0.0,0.0,25.18121352598,-0.006536424625665,-3.612167671257557
5,0.0,0.0,25.16702339433,-0.00901613291353,-4.98250736375636
6,0.0,0.0,25.16702465711,-0.009190953336656,-5.079116858526914
7,0.008000001311302,3.93483787775e-06,25.16702072227,-0.008937413804233,-4.939005504866052
8,0.01100000739098,5.314126610756e-06,25.16701934298,-0.008450563065708,-4.669961402143158
9,0.01299999654293,5.085021257401e-06,25.16701957208,-0.008232886902988,-4.5496689115523115
10,0.01399999856949,7.222581189126e-06,25.16701743452,-0.008116061799228,-4.485108867314022
11,0.1140000075102,1.813325798139e-05,25.16700652385,-0.00798059720546,-4.41024824331363
12,0.2144999951124,3.370056901986e-06,25.16702128705,-0.01004783250391,-5.552646563738516
13,0.3145000040531,3.086394144702e-07,25.16702434847,-0.007685193326324,-4.247001758685104
14,0.4150000065565,0.0006871122750454,25.16633754483,-0.009146435186267,-5.0545151790417835
15,0.4450000077486,0.01109026838094,25.15593438873,0.03922747448087,21.677939127227923
16,0.452500000596,0.02175997756422,25.14526467954,0.0740709155798,40.9331678953738
17,0.4574999958277,0.03292084857821,25.13410380853,0.07314618676901,40.422143029899075
18,0.4615000039339,0.04400635883212,25.12301829827,0.07719989866018,42.66231068736471
19,0.4650000035763,0.05529786273837,25.11172679437,0.08945270627737,49.43347353121823
20,0.4679999947548,0.06625367701054,25.1007709801,0.09942432492971,54.94400269492398
21,0.4705000072718,0.07631684839725,25.09070780871,0.1050929650664,58.07661414757443
22,0.4730000048876,0.08722688257694,25.07979777453,0.10999866575,60.78760898481135
23,0.4755000025034,0.09897615015507,25.06804850695,0.1143703088164,63.203472191238326
24,0.4775000065565,0.1090011745691,25.05802348254,0.1162414178252,64.23748694059353
25,0.4794999957085,0.1195297390223,25.04749491808,0.1170482262969,64.68334651142503
26,0.4814999997616,0.1305618435144,25.03646281359,0.1166243776679,64.44911871827199
27,0.4835000038147,0.1420669704676,25.02495768664,0.1146769747138,63.37294230738042
28,0.4855000078678,0.1539993435144,25.01302531359,0.1102633699775,60.93389018711672
29,0.4874999970198,0.1663131862879,25.00071147082,0.1043734773993,57.67900991593339
30,0.4895000010729,0.1789322048426,24.98809245226,0.09874298423529,54.56747929406771
31,0.491500005126,0.1918106228113,24.97521403429,0.09217407554388,50.937360235188486
32,0.493499994278,0.2048568874598,24.96216776965,0.08364441245794,46.223686474647444
33,0.4954999983311,0.2179947048426,24.94902995226,0.07589294761419,41.94006166184932
34,0.4975000023842,0.2311630398035,24.9358616173,0.06795837730169,37.55524886134731
35,0.4995000064373,0.2442855983973,24.92273905871,0.06003143638372,33.17465222699893
36,0.5014999955893,0.2572708129883,24.90975384412,0.05606605857611,30.98329986829048
37,0.5034999996424,0.2701187133789,24.89690594373,0.05794384330511,32.02100376302251
38,0.5055000036955,0.282844543457,24.88418011365,0.06413891166449,35.44453068034031
39,0.5075000077486,0.2954483032227,24.87157635388,0.07081463187933,39.13367606537599
40,0.5094999969006,0.307975769043,24.85904888806,0.07581951469183,41.89948106261572
41,0.5115000009537,0.320442199707,24.8465824574,0.07807018607855,43.143250078143424
42,0.5135000050068,0.3327865600586,24.83423809705,0.0776417478919,42.906485997536905
43,0.5154999941587,0.3450088500977,24.82201580701,0.07618071883917,42.09909017898536
44,0.5174999982119,0.357063293457,24.80996136365,0.0761769041419,42.096982095905766
45,0.519500002265,0.3689346313477,24.79809002576,0.07796599715948,43.08567305909692
46,0.5215000063181,0.3806381225586,24.78638653455,0.08069732040167,44.59506054234804
47,0.52349999547,0.3921279907227,24.77489666638,0.08332564681768,46.04752978251122
48,0.5254999995232,0.403434753418,24.76358990369,0.08709075301886,48.128207779677005
49,0.5275000035763,0.4145278930664,24.75249676404,0.09271361678839,51.23552223541668
50,0.5295000076294,0.4254531860352,24.74157147107,0.09941222518682,54.93731611891327
51,0.5314999967813,0.4362106323242,24.73081402478,0.1066220030189,58.921593134780984
52,0.5335000008345,0.4468154907227,24.72020916638,0.1139691099524,62.98176114134787
53,0.5355000048876,0.4572830200195,24.70974163709,0.121316216886,67.04192914797001
54,0.5374999940395,0.467658996582,24.69936566052,0.1280529797077,70.76480797960633
55,0.5394999980927,0.4779434204102,24.6890812367,0.1342709362507,74.20098339540162
56,0.5415000021458,0.488166809082,24.67885784802,0.1402523815632,77.50645766039544
57,0.5435000061989,0.4983139038086,24.6687107533,0.1464855968952,80.95106540846484
58,0.5454999953508,0.508430480957,24.65859417615,0.1522152721882,84.1174061903831
59,0.547499999404,0.5184860229492,24.64853863416,0.1579449474812,87.28374697230133
60,0.5495000034571,0.5285110473633,24.63851360974,0.1635220348835,90.36576443109156
61,0.5515000075102,0.5385208129883,24.62850384412,0.1682980358601,93.00508444372214
62,0.554000005126,0.5509872436523,24.61603741345,0.1734783947468,95.86786126250108
63,0.5565000027418,0.5634231567383,24.60360150037,0.1789639294147,98.89928472742552
64,0.5590000003576,0.5758590698242,24.59116558728,0.1853497326374,102.42821579862297
65,0.5614999979734,0.588264465332,24.57876019177,0.191476136446,105.8137972205525
66,0.5639999955893,0.6006698608398,24.56635479627,0.1968701183796,108.79462669166645
67,0.5665000081062,0.6130752563477,24.55394940076,0.2021115124226,111.69113283970765
68,0.569000005722,0.6254806518555,24.54154400525,0.2072384655476,114.52439649541664
69,0.5715000033379,0.6379013061523,24.52912335095,0.2119763195515,117.1426356772514
70,0.5740000009537,0.6503219604492,24.51670269666,0.2170346081257,119.93795383756108
71,0.5764999985695,0.6627578735352,24.50426678357,0.2216885387897,122.50981519166714
72,0.5789999961853,0.6751937866211,24.49183087048,0.2260906994343,124.94254306275289
73,0.5814999938011,0.687614440918,24.47941021619,0.231271058321,127.80531988153183
74,0.5840000063181,0.700065612793,24.46695904431,0.2366574108601,130.78193318650872
75,0.5865000039339,0.7125015258789,24.45452313123,0.2415631115437,133.49292802374563
76,0.5890000015497,0.7249526977539,24.44207195935,0.246407777071,136.1701935317203
77,0.5914999991655,0.7373886108398,24.42963604627,0.2516339123249,139.0582673474321
78,0.5939999967813,0.7498397827148,24.41718487439,0.257020264864,142.034880652409
79,0.5964999943972,0.762321472168,24.40470318494,0.2623684704304,144.99041312659008
80,0.5990000069141,0.7748031616211,24.39222149548,0.267045289278,147.57492297916255
81,0.60150000453,0.7873001098633,24.37972454724,0.2717335522175,150.16575708102357
82,0.6034999936819,0.7973098754883,24.36971478162,0.2759220898151,152.48043229971904
83,0.605499997735,0.8073348999023,24.3596897572,0.2802021801472,154.8457015123355
84,0.6075000017881,0.8173751831055,24.349649474,0.284322053194,157.12243123563164
85,0.6095000058413,0.8274154663086,24.3396091908,0.2883045971394,159.32326996823966
86,0.6114999949932,0.8374862670898,24.32953839002,0.2926152050495,161.7054038454044
87,0.6134999990463,0.847541809082,24.31948284802,0.297116547823,164.19294187649294
88,0.6155000030994,0.8576278686523,24.30939678845,0.3013584911823,166.53713025825834
89,0.6175000071526,0.8677139282227,24.29931072888,0.3051426708698,168.62834867080545
90,0.6194999963045,0.877815246582,24.28920941052,0.3088543713093,170.67951350491234
91,0.6215000003576,0.8879165649414,24.27910809216,0.312928467989,172.93094623133086
92,0.6235000044107,0.8980178833008,24.26900677381,0.3169415295124,175.14864962848714
93,0.6254999935627,0.9081192016602,24.25890545545,0.3208630383015,177.31575903183287
94,0.6274999976158,0.9182357788086,24.2487888783,0.324776917696,179.4786522689863
95,0.6295000016689,0.928352355957,24.23867230115,0.3287632763386,181.68159908463522
96,0.631500005722,0.9384689331055,24.228555724,0.3324292004108,183.70746692175396
97,0.633499994874,0.9485702514648,24.21845440564,0.3365567028522,185.98841281124245
98,0.6354999989271,0.9586715698242,24.20835308728,0.3411190807819,188.509680171538
99,0.6375000029802,0.9687728881836,24.19825176892,0.3454525768757,190.90446254722445
100,0.6395000070333,0.978874206543,24.18815045056,0.3498928844929,193.35827124905074
101,0.6414999961853,0.9889755249023,24.1780491322,0.3541043102741,195.68559496621262
102,0.6435000002384,0.9990921020508,24.16793255506,0.3586666882038,198.2068623265082
103,0.6455000042915,1.00919342041,24.1578312367,0.3633740246296,200.80823684373945
104,0.6474999934435,1.01929473877,24.14772991834,0.3679592907429,203.34215270250147
105,0.6494999974966,1.029396057129,24.13762859998,0.3725903332233,205.9013655581411
106,0.6515000015497,1.039482116699,24.12754254041,0.3769696056843,208.3214449307604
107,0.6535000056028,1.049583435059,24.11744122205,0.3807804882526,210.42741992481487
108,0.6554999947548,1.05965423584,24.10737042127,0.3844006359577,212.427990765056
109,0.6574999988079,1.069709777832,24.09731487927,0.3885739147663,214.73423365147733
110,0.659500002861,1.079765319824,24.08725933728,0.3930828869343,217.22598784870294
111,0.6615000069141,1.089790344238,24.07723431287,0.3974774181843,219.65449955359637
112,0.6634999960661,1.099815368652,24.06720928845,0.4019863903522,222.14625375076673
113,0.6655000001192,1.109825134277,24.05719952283,0.4067623913288,224.7855737633973
114,0.667999997735,1.12232208252,24.04470257459,0.4132016003132,228.3440179976647
115,0.6700000017881,1.132331848145,24.03469280896,0.4186795055866,231.37122529645208
116,0.672499999404,1.144844055176,24.02218060193,0.4255307018757,235.15734250306014
117,0.6745000034571,1.154853820801,24.01217083631,0.4303067028522,237.79666251563546
118,0.6765000075102,1.164894104004,24.0021305531,0.434640198946,240.19144489132188
119,0.6784999966621,1.174934387207,23.9920902699,0.4389355480671,242.56514643621247
120,0.6805000007153,1.184989929199,23.98203472791,0.443787842989,245.24662811037945
121,0.6825000047684,1.19506072998,23.97196392713,0.4488842785358,248.06302710142967
122,0.6844999939203,1.205131530762,23.96189312634,0.4536984264851,250.7234279448561
123,0.6864999979734,1.215232849121,23.95179180798,0.4585812389851,253.42177428362658
124,0.6885000020266,1.22534942627,23.94167523084,0.4632962048054,256.0273649669949
125,0.6905000060797,1.235481262207,23.9315433949,0.4681027233601,258.683549644229
126,0.6924999952316,1.245613098145,23.92141155896,0.4723179638386,261.012981444487
127,0.6944999992847,1.25577545166,23.91124920545,0.4760029613972,263.0493896970313
128,0.6965000033379,1.265937805176,23.90108685193,0.4800846874714,265.3050385895869
129,0.698500007391,1.27611541748,23.89090923963,0.4844639599323,267.72511796215093
130,0.7004999965429,1.286293029785,23.88073162732,0.4892247021198,270.35600564245215
131,0.702500000596,1.29647064209,23.87055401502,0.4939472973347,272.9658124920128
132,0.7045000046492,1.306678771973,23.86034588513,0.4987461864948,275.6177810030546
133,0.7064999938011,1.316898465157,23.85012619195,0.5032908916473,278.1292820097059
134,0.7084999978542,1.327121853828,23.83990280328,0.5075023174286,280.45660572692304
135,0.7105000019073,1.3373452425,23.82967941461,0.5116450786591,282.7459839487409
136,0.7125000059605,1.347568631172,23.81945602593,0.5156314373016,284.94893076433453
137,0.7144999951124,1.357792019844,23.80923263726,0.5192859172821,286.9684743522754
138,0.7164999991655,1.368000149727,23.79902450738,0.5231387615204,289.09763826022174
139,0.7185000032187,1.378193020821,23.78883163629,0.5277163982391,291.62733795279144
140,0.7205000072718,1.388370633125,23.77865402398,0.5323932170868,294.2118478054192
141,0.7224999964237,1.398517727852,23.76850692925,0.5369098186493,296.7078181687819
142,0.7245000004768,1.408664822578,23.75835983453,0.541960477829,299.49892016295456
143,0.72650000453,1.418796658516,23.74822799859,0.5477359294891,302.6905579417504
144,0.7284999936819,1.428913235664,23.73811142144,0.5534579753876,305.8526825575316
145,0.730499997735,1.439014554024,23.72801010308,0.5586078166962,308.69859471170696
146,0.7325000017881,1.449100613594,23.71792404351,0.563460111618,311.3800763858187
147,0.7345000058413,1.459186673164,23.70783798394,0.5684039592743,314.11215205385145
148,0.7364999949932,1.469257473946,23.69776718316,0.573469877243,316.9116863802982
149,0.7384999990463,1.479328274727,23.68769638238,0.5790317058563,319.9852715068143
150,0.7405000030994,1.489383816719,23.67764084039,0.5844714641571,322.9913979748611
151,0.7425000071526,1.4994546175,23.66757003961,0.5898501873016,325.9637951136457
152,0.7444999963045,1.509494900703,23.6575297564,0.5954730510712,329.07110956942404
153,0.7465000003576,1.519550442696,23.64747421441,0.6013171672821,332.3006928436193
154,0.7485000044107,1.529621243477,23.63740341363,0.6071307659149,335.5134114532109
155,0.7504999935627,1.539676785469,23.62734787164,0.6121432781219,338.2834326165877
156,0.7524999976158,1.54974758625,23.61727707086,0.6167514324188,340.82999697381615
157,0.7545000016689,1.559833645821,23.60719101129,0.6215579509735,343.48618165105023
158,0.756500005722,1.569919705391,23.59710495172,0.6264560222626,346.1929603221501
159,0.758499994874,1.580005764961,23.58701889214,0.631087064743,348.75217317778976
160,0.7604999989271,1.590107083321,23.57691757379,0.6355807781219,351.23549504268595
161,0.7625000029802,1.60020840168,23.56681625543,0.6400134563446,353.68508757837526
162,0.7645000070333,1.610309720039,23.55671493707,0.6446368694305,356.24008426787776
163,0.7664999961853,1.620411038399,23.54661361871,0.649397611618,358.870971948179
164,0.7685000002384,1.630512356758,23.53651230035,0.6539523601532,361.3880231423375
165,0.7705000042915,1.640613675117,23.52641098199,0.6583087444305,363.7954540164351
166,0.7724999934435,1.650714993477,23.51630966363,0.6626040935516,366.1691555613257
167,0.7744999974966,1.660801053047,23.50622360406,0.6666629314423,368.4121559554701
168,0.7765000015497,1.670887112617,23.49613754449,0.670622587204,370.60034618955643
169,0.7785000056028,1.68094265461,23.4860820025,0.6748034954071,372.9108052421148
170,0.7804999947548,1.690982937813,23.47604171929,0.6795260906219,375.52061209162014
171,0.7824999988079,1.701007962227,23.46601669488,0.6849048137665,378.49300923046
172,0.784500002861,1.711017727852,23.45600692925,0.6901996135712,381.41902854157115
173,0.7865000069141,1.721027493477,23.44599716363,0.6952884197235,384.23121136648433
174,0.78900000453,1.73350918293,23.43351547418,0.7014071941376,387.6125766222768
175,0.7915000021458,1.745990872383,23.42103378472,0.7076251506805,391.04875203801686
176,0.7939999997616,1.758457303047,23.40856735406,0.7136752605438,394.39217179841
177,0.7964999973774,1.770923733711,23.39610092339,0.7194278240204,397.57116107879466
178,0.7989999949932,1.783359646797,23.38366501031,0.7252948284149,400.8133928514563
179,0.8015000075102,1.795780301094,23.37124435601,0.7318332195282,404.4266472457265
180,0.804000005126,1.808185696602,23.3588389605,0.738753080368,408.25070994767856
181,0.8065000027418,1.820575833321,23.34644882379,0.7460162639618,412.26450012662724
182,0.8090000003576,1.83295071125,23.33407394586,0.7533786296844,416.3331004655235
183,0.8114999979734,1.845340847969,23.32168380914,0.7606723308563,420.36375530907577
184,0.8139999955893,1.857746243477,23.30927841363,0.7684466838837,424.66002862036794
185,0.8165000081062,1.870166897774,23.29685775933,0.7749927043915,428.2774991807752
186,0.819000005722,1.88260281086,23.28442184625,0.7805163860321,431.3300034764955
187,0.8215000033379,1.895023465157,23.27200119195,0.7865741252899,434.6776394030257
188,0.8240000009537,1.907459378242,23.25956527886,0.7932879924774,438.38786561883506
189,0.8264999985695,1.919895291328,23.24712936578,0.7996737957001,441.9167966900325
190,0.8289999961853,1.932346463203,23.2346781939,0.806120634079,445.47945709043694
191,0.8314999938011,1.9447671175,23.22225753961,0.8120410442352,448.75120202616847
192,0.8340000063181,1.957172513008,23.2098521441,0.8174579143524,451.7446799957489
193,0.8365000039339,1.969577908516,23.19744674859,0.8234393596649,455.0501542607427
194,0.8390000015497,1.981952786446,23.18507187066,0.8297336101532,458.5284913380744
195,0.8414999991655,1.994312405586,23.17271225152,0.8362720012665,462.1417457323446
196,0.8439999967813,2.006641626358,23.16038303075,0.8429782390594,465.8477557819616
197,0.8464999943972,2.018955469131,23.14806918797,0.8496005535126,469.50738800396056
198,0.8490000069141,2.031254053116,23.13577060399,0.855940580368,473.01102207816984
199,0.85150000453,2.043537378311,23.12348727879,0.8628146648407,476.8097877832443
200,0.8540000021458,2.055805444717,23.11121921239,0.8693149089813,480.40196134671874
201,0.8564999997616,2.068073511124,23.09895114598,0.8751666545868,483.63576078710616
202,0.8589999973774,2.080311059952,23.08671359715,0.8811252117157,486.9285865536336
203,0.8614999949932,2.092533349991,23.07449130712,0.8876559734344,490.53762478171143
204,0.8640000075102,2.10475564003,23.06226901708,0.8944613933563,494.29844499138665
205,0.866500005126,2.11696267128,23.05006198583,0.9019381999969,498.43028782261507
206,0.8690000027418,2.12916970253,23.03785495458,0.908919095993,502.28807985382946
207,0.8715000003576,2.14137673378,23.02564792333,0.9156863689423,506.02781923276405
208,0.8739999979734,2.15358376503,23.01344089208,0.9232089519501,510.1849590609254
209,0.8764999955893,2.165821313858,23.00120334325,0.9304645061493,514.1945330736818
210,0.8790000081062,2.178058862686,22.98896579442,0.9368503093719,517.7234641448239
211,0.881500005722,2.190311670303,22.9767129868,0.9433887004852,521.3367185390941
212,0.8840000033379,2.202594995499,22.96442966161,0.9502551555634,525.1312680780316
213,0.8865000009537,2.214908838272,22.95211581883,0.9568698406219,528.7866841337828
214,0.8889999985695,2.227222681046,22.93980197606,0.9633014202118,532.3409122019132
215,0.8914999961853,2.239551782608,22.9274728745,0.9697406291962,535.8993564361805
216,0.8939999938011,2.25189614296,22.91512851415,0.976546049118,539.6601766458004
217,0.8965000063181,2.264271020889,22.90275363622,0.9827105998993,543.0668388985258
218,0.8990000039339,2.276645898819,22.89037875829,0.9883105754852,546.1615048557825
219,0.9015000015497,2.289051294327,22.87797336278,0.9941394329071,549.3826557977036
220,0.9039999991655,2.301456689835,22.86556796727,0.9998919963837,552.5616450780882
221,0.9064999967813,2.313862085342,22.85316257176,1.006323575974,556.1158731464395
222,0.9089999943972,2.326282739639,22.84074191747,1.01288485527,559.7417760386788
223,0.9115000069141,2.338688135147,22.82833652196,1.018698453903,562.954494648381
224,0.91400000453,2.351093530655,22.81593112645,1.024489164352,566.1545647593957
225,0.9165000021458,2.363498926163,22.80352573094,1.03143954277,569.9954921260066
226,0.9189999997616,2.375889062881,22.79113559422,1.038756132126,574.0387954683015
227,0.9214999973774,2.388263940811,22.77876071629,1.045187711716,577.5930235364872
228,0.9239999949932,2.40065407753,22.76637057958,1.05041384697,580.4810973522542
229,0.9265000075102,2.41302895546,22.75399570165,1.056441068649,583.8118686137941
230,0.929000005126,2.425403833389,22.74162082372,1.063277006149,587.5895534880727
231,0.9315000027418,2.437778711319,22.72924594579,1.069891691208,591.2449695441004
232,0.9340000003576,2.45013833046,22.71688632665,1.076689481735,595.0015735874174
233,0.9364999979734,2.462482690811,22.70454196629,1.083746671677,598.9015272804996
234,0.9389999955893,2.474827051163,22.69219760594,1.090780973434,602.7888324743419
235,0.9415000081062,2.487156152725,22.67986850438,1.09792971611,606.7393801610689
236,0.944000005722,2.499500513077,22.66752414403,1.105490446091,610.9176008203025
237,0.9465000033379,2.511844873428,22.65517978368,1.113798856735,615.5090057620729
238,0.9490000009537,2.524219751358,22.64280490575,1.122290372849,620.2015986922381
