,time,travel,position,force,stress
0,0.0,0.0,13.15117815399,-0.00238101487048,-1.4327042956983025
1,0.0,0.0,13.15117252135,-0.002297568367794,-1.3824928651266275
2,0.0,0.0,13.15118149185,-0.00131458346732,-0.7910111793227262
3,0.0,0.0,13.15118731821,-0.001315646455623,-0.7916508006568332
4,0.0,0.0,13.1511846807,-0.001230531022884,-0.740435141474158
5,0.0,0.0,13.30176525185,-0.002880111336708,-1.7330206271912454
6,0.0,0.0,13.30176596602,-0.003031149506569,-1.82390331652558
7,0.008000001311302,-1.462642103434e-06,13.30176742866,-0.003967180848122,-2.3871321063066695
8,0.01100000739098,5.099456757307e-06,13.30176086656,-0.003965482115746,-2.3861099450415253
9,0.01299999654293,4.465691745281e-07,13.30176551945,-0.003840073943138,-2.31064933795387
10,0.01399999856949,6.377231329679e-06,13.30175958879,-0.003771170973778,-2.2691890424251238
11,0.1140000075102,-3.323861164972e-05,13.30179920463,-0.00210827216506,-1.2685895518047308
12,0.2145000100136,-1.095773495763e-05,13.30177692375,-0.001497974735685,-0.9013613754670818
13,0.3149999976158,-2.473218592058e-05,13.3017906982,-0.001249388093129,-0.7517818180024108
14,0.4150000065565,-2.907479756686e-05,13.30179504081,-0.00297804758884,-1.7919508299689466
15,0.5155000090599,-4.052375879837e-05,13.30180648978,-0.0004673633666243,-0.2812218904284578
16,0.6155000030994,0.0100559098646,13.29171005615,0.003507338929921,2.1104360219114024
17,0.6354999989271,0.0202964656055,13.28146950041,0.01895209401846,11.403854234329874
18,0.6465000063181,0.03064383193851,13.27112213408,0.03380151838064,20.33905003512444
19,0.6545000076294,0.04123343154788,13.26053253447,0.03008385747671,18.102059072553764
20,0.6615000069141,0.05187262222171,13.24989334379,0.02746029943228,16.52341169539104
21,0.667999997735,0.06243170425296,13.23933426176,0.02471967786551,14.874324854197464
22,0.6745000034571,0.07326925545931,13.22849671056,0.02490242570639,14.984287887148025
23,0.6805000007153,0.08332289755344,13.21844306846,0.02275646105409,13.69301801148063
24,0.6870000064373,0.09390105307102,13.20786491295,0.02388406172395,14.371517899729975
25,0.6934999972582,0.103968039155,13.19779792686,0.01975298300385,11.885765163980803
26,0.7010000050068,0.1143478304148,13.1874181356,0.0268171466887,16.13641381900589
27,0.7090000063181,0.1244605928659,13.17730537315,0.040866676718,24.590297192469468
28,0.7175000011921,0.1349967867136,13.1667691793,0.05260068550706,31.65088509818835
29,0.7255000025034,0.1451972872019,13.15656867881,0.06331617385149,38.09860887005839
30,0.733000010252,0.1552146822214,13.1465512838,0.06917173415422,41.62201668386616
31,0.7405000030994,0.1656173616648,13.13614860435,0.06990344077349,42.06229919936665
32,0.7479999959469,0.1759704500437,13.12579551597,0.06849921494722,41.217348418768644
33,0.7559999972582,0.1863922029734,13.11537376304,0.07153648883104,43.044936895645286
34,0.7645000070333,0.1965354830027,13.10523048301,0.07575172930956,45.58133144565476
35,0.7740000039339,0.2065719515085,13.09519401451,0.08019012957811,48.252005707129726
36,0.7855000048876,0.216703787446,13.08506217857,0.0902456715703,54.30262655221541
37,0.7990000098944,0.226885214448,13.07488075157,0.1112112477422,66.91803329144997
38,0.8114999979734,0.2370780855417,13.06468788047,0.1210340932012,72.82863597586444
39,0.8225000053644,0.2473415285349,13.05442443748,0.1300978064537,78.28245362010979
40,0.8325000107288,0.2578662633896,13.04389970263,0.1372312903404,82.57481362780238
41,0.8414999991655,0.2682079076767,13.03355805834,0.1418442130089,85.35050150981535
42,0.8500000089407,0.2783130407333,13.02345292528,0.1492676138878,89.81731037344355
43,0.8585000038147,0.288490653038,13.01327531298,0.155094563961,93.32350283960407
44,0.8675000071526,0.2989238500595,13.00284211596,0.1630062460899,98.08412030269007
45,0.8770000040531,0.3093837499619,12.99238221605,0.1696895956993,102.10562550778383
46,0.8870000094175,0.3195918798447,12.98217408617,0.1803612112999,108.52695017172361
47,0.8975000083447,0.3296149969101,12.97215096911,0.1931633353233,116.23024438873539
48,0.9085000008345,0.339874625206,12.96189134081,0.2093433737755,125.96609731533111
49,0.9189999997616,0.3500236272812,12.95174233874,0.221428334713,133.2378601519118
50,0.9294999986887,0.3604918122292,12.94127415379,0.2336782664061,140.60888919348056
51,0.9395000040531,0.3705664277077,12.93119953831,0.2446054667234,147.18400429614076
52,0.9495000094175,0.380595266819,12.9211706992,0.2561677992344,154.14129114981853
53,0.9594999998808,0.3906279206276,12.91113804539,0.265769392252,159.91876181260747
54,0.9699999988079,0.4010801911354,12.90068577488,0.2788499891758,167.78961874650315
55,0.980499997735,0.4115362763405,12.89022968968,0.2936967909336,176.72323647375953
56,0.9905000030994,0.42155367136,12.88021229466,0.3084749281406,185.61553736670587
57,1.000500008464,0.4315786957741,12.87018727024,0.3230623304844,194.39306927553787
58,1.011000007391,0.44206148386,12.85970448216,0.3372072279453,202.90433714105862
59,1.021500006318,0.4524374604225,12.84932850559,0.3518480360508,211.71400436544508
60,1.032000005245,0.4627085328102,12.83905743321,0.3669084608555,220.77616335497927
61,1.042500004172,0.4729643464088,12.82880161961,0.3853677809238,231.88350564225854
62,1.053000003099,0.4833174347878,12.81844853123,0.4035295546055,242.81180831431467
63,1.063500002027,0.4937658905983,12.80800007542,0.4233583509922,254.7431919079102
64,1.073500007391,0.5037947297096,12.79797123631,0.441119581461,265.43047971321795
65,1.084000006318,0.5142813324928,12.78748463352,0.4601015150547,276.8522890171101
66,1.094500005245,0.5246916413307,12.77707432469,0.479148298502,288.31311977566844
67,1.105000004172,0.535063803196,12.76670216282,0.4996255934238,300.634717915385
68,1.115500003099,0.5453768372536,12.75638912876,0.5227198004723,314.53096445057014
69,1.126000002027,0.5557909607887,12.74597500523,0.5452951788902,328.1150214160857
70,1.136500000954,0.5662508606911,12.73551510533,0.5667261481285,341.01046447667477
71,1.146999999881,0.5766535401344,12.72511242588,0.5883707404137,354.0344487995416
72,1.157499998808,0.5869246125221,12.71484135349,0.6102899909019,367.22370045952823
73,1.167999997735,0.597168982029,12.70459698399,0.6325678229332,380.6287178098207
74,1.178500011563,0.6074650287628,12.69430093725,0.6571128964424,395.3979797286983
75,1.188500002027,0.6175014972687,12.68426446875,0.6817405819893,410.2169509638664
76,1.198500007391,0.6277210712433,12.67404489477,0.7053917050362,424.44830500011886
77,1.208499997854,0.6380054950714,12.66376047095,0.7297294735909,439.0928273793514
78,1.218500003219,0.6482136249542,12.65355234106,0.7553337216377,454.4994158133749
79,1.228500008583,0.6583607196808,12.64340524634,0.7799766659737,469.32756856729867
80,1.23900000751,0.668847322464,12.63291864355,0.8063285946846,485.18405141926456
81,1.249500006437,0.6793110370636,12.62245492895,0.8354118466377,502.684026124455
82,1.259499996901,0.6893627643585,12.61240320166,0.862831890583,519.1832152877499
83,1.269500002265,0.6994640827179,12.6023018833,0.8903511166573,535.742084322866
84,1.279500007629,0.7095348834991,12.59223108252,0.9179542660713,552.3514517109276
85,1.289499998093,0.7196667194366,12.58209924658,0.9451912045479,568.7404626494557
86,1.299500003457,0.7297718524933,12.57199411352,0.9726112484932,585.2396518127506
87,1.309500008821,0.7398006916046,12.56196527441,1.001938700676,602.8865666830109
88,1.319499999285,0.7498066425323,12.55195932348,1.030411601067,620.0192806391196
89,1.329999998212,0.7602665424347,12.54149942358,1.061196208,638.5429946827037
90,1.340499997139,0.7706806659698,12.53108530005,1.093468546867,657.9619068030053
91,1.350500002503,0.7806866168976,12.52107934912,1.123192667961,675.8475052951496
92,1.360500007868,0.7908108234406,12.51095514258,1.152558207512,693.5173380970483
93,1.370499998331,0.8009197711945,12.50084619482,1.182984232903,711.8252864509885
94,1.380500003695,0.8109638690948,12.49080209692,1.213837504387,730.3903173290029
95,1.391000002623,0.8213627338409,12.48040323218,1.246628642082,750.1214010861531
96,1.40150000155,0.8316242694855,12.47014169653,1.28051841259,770.5135541923842
97,1.412000000477,0.8418991565704,12.45986680945,1.31355369091,790.3915422492634
98,1.422499999404,0.8522560596466,12.44950990637,1.346550822258,810.2465765097047
99,1.432999998331,0.8627174496651,12.43904851635,1.379679083824,830.1805144464539
100,1.443000003695,0.8727577328682,12.42900823315,1.411447882652,849.2964364486021
101,1.45300000906,0.8828323483467,12.41893361767,1.443186163902,868.3939954133594
102,1.462999999523,0.8928726315498,12.40889333447,1.476938605309,888.7035148513314
103,1.473000004888,0.9029243588448,12.39884160717,1.512094855309,909.8577340122935
104,1.483000010252,0.9129760861397,12.38878987988,1.546144843102,930.3462930651277
105,1.493000000715,0.9229896664619,12.37877629955,1.579592108727,950.4721821279874
106,1.503499999642,0.9333770871162,12.3683888789,1.614824652672,971.6723088824267
107,1.513999998569,0.9436729550362,12.35809301098,1.649744391441,992.6842145027066
108,1.524499997497,0.9539917111397,12.34777425488,1.683405280113,1012.9386448279042
109,1.534999996424,0.964394390583,12.33737157543,1.718790411949,1034.2305867698997
110,1.545000001788,0.9744384884834,12.32732747753,1.75327527523,1054.9808191064567
111,1.555000007153,0.98458558321,12.31718038281,1.788042426109,1075.9009095397823
112,1.564999997616,0.9947593808174,12.3070065852,1.822061896324,1096.3711055552255
113,1.57500000298,1.00487601757,12.29688994845,1.857569098473,1117.7364996473864
114,1.585000008345,1.01493537426,12.28683059176,1.893328070641,1139.253388798323
115,1.594999998808,1.024975657463,12.27679030855,1.93011701107,1161.3900304633082
116,1.605000004172,1.035035014153,12.26673095186,1.964853644371,1182.2917578592428
117,1.615000009537,1.045113444328,12.25665252169,2.001360177994,1204.2584696976205
118,1.625,1.05518424511,12.24658172091,2.03787446022,1226.229844025486
119,1.635000005364,1.065266489983,12.23649947603,2.072565317154,1247.1040268653342
120,1.645000010729,1.075386881828,12.22637908419,2.107958078384,1268.4005595663766
121,1.655000001192,1.085511088371,12.21625487765,2.145891427994,1291.225815137131
122,1.665000006557,1.095654368401,12.20611159762,2.182901620865,1313.495588824103
123,1.67499999702,1.105767130852,12.19599883516,2.218767404556,1335.0767486059076
124,1.685000002384,1.115812897682,12.18595306833,2.256494045258,1357.7776232901238
125,1.695500001311,1.12630712986,12.17545883616,2.295503139496,1381.2501759310132
126,1.706000000238,1.136778473854,12.16498749216,2.333085536957,1403.8642565705686
127,1.716499999166,1.147268891335,12.15449707468,2.371972560883,1427.2633570618948
128,1.72650000453,1.15730535984,12.14446060618,2.408616542816,1449.3127742989725
129,1.737000003457,1.167742371559,12.13402359446,2.447183132172,1472.5190628970922
130,1.747500002384,1.178051590919,12.1237143751,2.484979152679,1495.261684798384
131,1.758000001311,1.188278794289,12.11348717173,2.521684169769,1517.3478281108453
132,1.768500000238,1.198588013649,12.10317795237,2.558480739594,1539.489060536081
133,1.778500005603,1.208643555641,12.09312241038,2.593865871429,1560.7810024774747
134,1.788499996066,1.218916535378,12.08284943064,2.629342556,1582.1280335322447
135,1.798500001431,1.229178071022,12.07258789499,2.663972377777,1602.9654902967093
136,1.808500006795,1.239275574684,12.06249039133,2.701310634613,1625.4326666365357
137,1.819000005722,1.249697327614,12.0520686384,2.739953517914,1648.684862828133
138,1.829500004649,1.260027527809,12.04173843821,2.77916097641,1672.276775212665
139,1.840000003576,1.270449280739,12.03131668528,2.818437099457,1695.9100044316274
140,1.850000008941,1.280539155006,12.02122681101,2.856492519379,1718.8087121519454
141,1.859999999404,1.290686249733,12.01107971628,2.894570827484,1741.7211921500054
142,1.870000004768,1.300757050514,12.0010089155,2.935311794281,1766.2358471673415
143,1.880500003695,1.311236023903,11.99052994211,2.977120876312,1791.3932084957655
144,1.891000002623,1.321612000465,11.98015396555,3.019555568695,1816.9270120925082
145,1.90150000155,1.332026124001,11.96973984202,3.06049489975,1841.5610268534867
146,1.911500006914,1.342093110085,11.95967285593,3.100022792816,1865.345751131225
147,1.921499997377,1.352202057838,11.94956390818,3.138413906097,1888.4464522634444
148,1.931500002742,1.362219452858,11.93954651316,3.179045200348,1912.895115115119
149,1.942000001669,1.37267935276,11.92908661326,3.221678256989,1938.5482784555045
150,1.952500000596,1.383158326149,11.91860763987,3.265913486481,1965.1655012625222
151,1.96250000596,1.393293976784,11.90847198923,3.307280063629,1990.0565985475748
152,1.972499996424,1.403597474098,11.89816849192,3.347502231598,2014.259081928062
153,1.982500001788,1.413931488991,11.88783447703,3.388792514801,2039.1042716196375
154,1.992500007153,1.424162507057,11.87760345896,3.429411411285,2063.545474486808
155,2.002499997616,1.434206604958,11.86755936106,3.471769809723,2089.0333704900736
156,2.012999996543,1.444531083107,11.85723488291,3.515745639801,2115.494507478667
157,2.023500010371,1.454811692238,11.84695427378,3.559843540192,2142.0290966174257
158,2.034000009298,1.465222001076,11.83654396494,3.602934360504,2167.957705519276
159,2.043999999762,1.475224137306,11.82654182871,3.643705844879,2192.4907235740025
160,2.054499998689,1.485722184181,11.81604378184,3.685713291168,2217.7674446460696
161,2.064999997616,1.496143937111,11.80562202891,3.729231357574,2243.953136072596
162,2.075499996543,1.506462693214,11.7953032728,3.772078037262,2269.7348406753194
163,2.086000010371,1.516794800758,11.78497116526,3.816572666168,2296.5081493007615
164,2.096000000834,1.526827454567,11.77493851145,3.859220981598,2322.170494159842
165,2.106000006199,1.537050843239,11.76471512278,3.901915073395,2347.860383575009
166,2.115999996662,1.547388672829,11.75437729319,3.943769931793,2373.0452894595196
167,2.126000002027,1.557657837868,11.74410812815,3.987806797028,2399.5431525234967
168,2.136000007391,1.567774415016,11.733991551,4.02943277359,2424.5903356269737
169,2.146500006318,1.578102707863,11.72366325815,4.074766635895,2451.8686277830725
170,2.157000005245,1.588291764259,11.71347420176,4.119993686676,2479.0826493077006
171,2.167500004172,1.59857237339,11.70319359263,4.165434360504,2506.425212094668
172,2.177500009537,1.608608841896,11.69315712412,4.208982944489,2532.629266559187
173,2.1875,1.618866205215,11.6828997608,4.253699302673,2559.535994128379
174,2.197500005364,1.629310846329,11.67245511969,4.29851436615,2586.5021146476292
175,2.207500010729,1.639774560928,11.66199140509,4.342734336853,2613.1101559359513
176,2.217500001192,1.650058984756,11.65170698126,4.387076377869,2639.7916493744387
177,2.227500006557,1.660087823868,11.64167814215,4.431967735291,2666.803677487166
178,2.238000005484,1.670437097549,11.63132886847,4.47803401947,2694.52268254185
179,2.248500004411,1.680723428726,11.62104253729,4.524558067322,2722.5171331592023
180,2.259000003338,1.691053628922,11.6107123371,4.57195186615,2751.0349303440003
181,2.269500002265,1.701544046402,11.60022191961,4.619132041931,2779.42418626646
182,2.279500007629,1.711652994156,11.59011297186,4.663992881775,2806.4178513417964
183,2.289499998093,1.721754312515,11.5800116535,4.709738731384,2833.944044503274
184,2.299500003457,1.731771707535,11.56999425848,4.753851890564,2860.487815160728
185,2.310000002384,1.742189645767,11.55957632025,4.801505088806,2889.16169816395
186,2.320500001311,1.752561807632,11.54920415838,4.849692344666,2918.1569343233186
187,2.331000000238,1.762933969498,11.53883199652,4.896414756775,2946.2707446837117
188,2.341499999166,1.773325204849,11.52844076117,4.944876670837,2975.4312481795982
189,2.351999998093,1.783807992935,11.51795797308,4.994025230408,3005.0049200191866
190,2.362000003457,1.793905496597,11.50786046942,5.040366172791,3032.8891924115915
191,2.372000008821,1.804006814957,11.49775915106,5.086844444275,3060.856098472256
192,2.381999999285,1.814043283463,11.48772268255,5.133749961853,3089.080087057596
193,2.392499998212,1.824510812759,11.47725515326,5.182898521423,3118.6537588965825
194,2.402999997139,1.834902048111,11.46686391791,5.232367515564,3148.4202426293778
195,2.413499996066,1.845232248306,11.45653371771,5.283423423767,3179.141604310109
196,2.424000009894,1.855638742447,11.44612722357,5.333762168884,3209.4314346103492
197,2.434500008821,1.866137742996,11.43562822302,5.384215354919,3239.7901263011063
198,2.444499999285,1.876151323318,11.4256146427,5.432402610779,3268.785362460475
199,2.454500004649,1.886153459549,11.41561250647,5.479552268982,3297.1562553455437
200,2.465000003576,1.896613359451,11.40515260657,5.529036521912,3326.9319205970337
201,2.475500002503,1.907061815262,11.39470415075,5.580122947693,3357.671645315156
202,2.486000001431,1.917544603348,11.38422136267,5.631377220154,3388.5123667395305
203,2.496500000358,1.928008317947,11.37375764807,5.682372093201,3419.1970023454796
204,2.506999999285,1.938410997391,11.36335496863,5.732420921326,3449.3123837899047
205,2.517499998212,1.948668718338,11.35309724768,5.782195091248,3479.2624978972103
206,2.527999997139,1.958777666092,11.34298829992,5.832427024841,3509.488057565981
207,2.538499996066,1.968917131424,11.33284883459,5.882872581482,3539.842158497691
208,2.549000009894,1.979277849197,11.32248811682,5.934355735779,3570.8206027030988
209,2.559000000358,1.989367723465,11.31239824255,5.983916282654,3600.642175548066
210,2.569000005722,1.999572038651,11.30219392737,6.034193992615,3630.895279773524
211,2.578999996185,2.00979924202,11.291966724,6.084547996521,3661.1942915924596
212,2.58900000155,2.019965410233,11.28180055578,6.136015892029,3692.1635542791723
213,2.599000006914,2.030020952225,11.27174501379,6.186232566833,3722.3799324292468
214,2.609500005841,2.040496110916,11.2612698551,6.240065574646,3754.7723305197705
215,2.620000004768,2.050959825516,11.2508061405,6.293852806091,3787.137184053607
216,2.630500003695,2.061404466629,11.24036149939,6.347319602966,3819.309225694237
217,2.641000002623,2.071845293045,11.22992067297,6.40048122406,3851.2976369603557
218,2.65150000155,2.082240343094,11.21952562292,6.452605247498,3882.661704952777
219,2.662000000477,2.092627763748,11.20913820227,6.504988670349,3914.1818587630214
220,2.672499999404,2.103091478348,11.19867448767,6.558058738708,3946.1151809163657
221,2.682500004768,2.113128900528,11.18863706549,6.610116481781,3977.4393666867845
222,2.692500010133,2.123188257217,11.1785777088,6.661004543304,4008.059731661265
223,2.702500000596,2.133228540421,11.1685374256,6.714608669281,4040.314406970755
224,2.712999999523,2.143638849258,11.15812711676,6.770913600922,4074.1942110959594
225,2.72349999845,2.153969049454,11.14779691656,6.826241970062,4107.486398021646
226,2.733999997377,2.164280176163,11.13748578985,6.881570339203,4140.778584947933
227,2.744499996305,2.174686670303,11.12707929571,6.937707424164,4174.557392366886
228,2.754500001669,2.184746026993,11.11701993902,6.990624904633,4206.398899333276
229,2.764500007033,2.194942712784,11.10682325323,7.044106960297,4238.580122492602
230,2.774499997497,2.205135583878,11.09663038214,7.09775686264,4270.862342357576
231,2.784500002861,2.215194940567,11.08657102545,7.151452541351,4303.17210677924
232,2.795000001788,2.225635766983,11.07613019903,7.207742214203,4337.042729385747
233,2.805500000715,2.235988855362,11.06577711065,7.265222072601,4371.629510452908
234,2.815999999642,2.246258020401,11.05550794562,7.323754787445,4406.849816313063
235,2.826499998569,2.256546258926,11.04521970709,7.383386135101,4442.731191521697
236,2.836999997497,2.266968011856,11.03479795416,7.442574977875,4478.346302687562
237,2.847000002861,2.276989221573,11.02477674444,7.499551296234,4512.630093636569
238,2.857000008225,2.287060022354,11.01470594366,7.556069850922,4546.63843902411
239,2.866999998689,2.297149896622,11.00461606939,7.612451076508,4580.564150742791
240,2.877000004053,2.307213068008,10.99455289801,7.668466091156,4614.2695060115775
241,2.887000009418,2.317219018936,10.98454694708,7.725610256195,4648.654293666837
