,time,travel,position,force,stress
0,0.0,0.0,26.74640230218,-0.00872019212693,-4.818964172610896
1,0.0,0.0,26.74640362838,-0.008649620227516,-4.779964635683388
2,0.0,0.0,26.74640414992,-0.008210911415517,-4.537524788434729
3,0.0,0.0,26.74640377739,-0.007760643493384,-4.288697130368119
4,0.0,0.0,26.74640222767,-0.007787227164954,-4.303387834312206
5,0.0,0.0,26.93794850946,-0.004703197162598,-2.5990870720946124
6,0.0,0.0,26.93795513492,-0.004540655296296,-2.5092629697288302
7,0.008000001311302,1.4528632164e-05,26.93794060628,-0.004727173130959,-2.6123367036226264
8,0.01099999248981,1.079216599464e-05,26.93794434275,-0.004900980275124,-2.7083862388259092
9,0.01299999654293,1.049041748047e-05,26.9379446445,-0.005020904820412,-2.7746591005642185
10,0.01399999856949,1.140125095844e-05,26.93794373366,-0.005081343930215,-2.808059041818459
11,0.1145000010729,-8.703660569154e-06,26.93796383858,-0.00646038306877,-3.5701454849372696
12,0.2150000035763,-4.261130015948e-05,26.93799774622,-0.006398277822882,-3.535824801343475
13,0.3155000060797,6.570217010449e-06,26.9379485647,-0.008177410811186,-4.519011639907491
14,0.4159999936819,-5.207554568187e-05,26.93800721046,-0.006352012511343,-3.5102576033395914
15,0.488999992609,0.01006767246872,26.92788746245,0.02683565579355,14.829955800889381
16,0.4975000023842,0.02041313052177,26.91754200439,0.07311556488276,40.40522072238698
17,0.5024999976158,0.0308196246624,26.90713551025,0.07840941101313,43.330713012721304
18,0.506500005722,0.04149314761162,26.8964619873,0.08277580887079,45.74367760491732
19,0.5100000053644,0.05256339907646,26.88539173584,0.09644005447626,53.294831187320995
20,0.5129999965429,0.06349632143974,26.87445881348,0.1082961335778,59.846753391135614
21,0.5154999941587,0.07368919253349,26.86426594238,0.1131484284997,62.52823506530258
22,0.5179999917746,0.08484336733818,26.85311176758,0.1135546937585,62.75274591302664
23,0.5205000042915,0.09692832827568,26.84102680664,0.1110522523522,61.36984341437913
24,0.5224999934435,0.1072127521038,26.83074238281,0.1089579835534,60.21250580503141
25,0.5244999974966,0.1179854571819,26.81996967773,0.1071040406823,59.18797742952604
26,0.5265000015497,0.129231184721,26.80872395019,0.105677343905,58.39955435869072
27,0.5285000056028,0.1409041583538,26.79705097656,0.1041495576501,57.55526708627688
28,0.5304999947548,0.1529891192913,26.78496601562,0.1020343080163,56.38633501998315
29,0.5324999988079,0.1654402911663,26.77251484375,0.09852478653193,54.44689858899464
30,0.534500002861,0.1782118976116,26.7597432373,0.09349701553583,51.66844509328846
31,0.536499992013,0.1912581622601,26.74669697266,0.08861420303583,48.97009875451799
32,0.5384999960661,0.2045180499554,26.73343708496,0.08257935196161,45.63511132644318
33,0.5399999916553,0.2145583331585,26.72339680176,0.07649872452021,42.27482690144654
34,0.5415000021458,0.2246443927288,26.71331074219,0.07030365616083,38.85129998412874
35,0.542999997735,0.2347304522991,26.70322468262,0.06468842178583,35.74820169454269
36,0.5444999933243,0.2448165118694,26.69313862305,0.05915710702538,32.691479173977484
37,0.5460000038147,0.2548567950726,26.68309833984,0.05393097177148,29.80340535826567
38,0.5479999929667,0.2681319415569,26.66982319336,0.04988357797265,27.566729213393177
39,0.5499999970198,0.2812545001507,26.65670063476,0.05145904794335,28.43736752426036
40,0.5520000010729,0.2942244708538,26.64373066406,0.05723449960351,31.62900530308938
41,0.554000005126,0.3070571124554,26.63089802246,0.06299469619989,34.81221280828031
42,0.555999994278,0.3197829425335,26.61817219238,0.0658843293786,36.40908573923185
43,0.5579999983311,0.3323714435101,26.60558369141,0.06482575088739,35.824092685319236
44,0.5600000023842,0.3447768390179,26.5931782959,0.06222030892968,34.38426988494225
45,0.5619999915361,0.3569686114788,26.58098652344,0.06038734689355,33.371335966366296
46,0.5639999955893,0.3689009845257,26.56905415039,0.06134578958154,33.90099183950481
47,0.5659999996424,0.3805586993694,26.55739643555,0.06586620956659,36.399072344616265
48,0.5680000036955,0.3919570147991,26.54599812012,0.07321331650019,40.45924035123841
49,0.5699999928474,0.4031111896038,26.53484394531,0.08241436630487,45.54393673335486
50,0.5719999969006,0.4140670001507,26.52388813476,0.09146282821894,50.544309792393044
51,0.5740000009537,0.4248549640179,26.5131001709,0.1001145616174,55.3254422114144
52,0.5760000050068,0.4354903399944,26.50246479492,0.1085374131799,59.980089645793456
53,0.5779999941587,0.4460036456585,26.49195148926,0.1168381944299,64.56727842170325
54,0.5799999982119,0.4564101397991,26.48154499512,0.124925352633,69.03641454527803
55,0.582000002265,0.4667403399944,26.47121479492,0.132272452116,73.0965784345397
56,0.5839999914169,0.4769942462444,26.46096088867,0.1390626132488,76.84896631188548
57,0.58599999547,0.4872176349163,26.4507375,0.1456315219402,80.47908537075915
58,0.5879999995232,0.4973799884319,26.44057514648,0.152536123991,84.29471574043714
59,0.5900000035763,0.5075423717499,26.43041276317,0.1590745151043,87.90797013470734
60,0.5919999927282,0.5176589488983,26.42029618602,0.1649186313152,91.13755340890252
61,0.5939999967813,0.5277755260468,26.41017960887,0.170587271452,94.27016486161376
62,0.5960000008345,0.5378768444061,26.40007829051,0.1755616366863,97.01910519419474
63,0.5980000048876,0.5479781627655,26.38997697215,0.1795861423016,99.24313284063948
64,0.5999999940395,0.5580337047577,26.37992143016,0.1836068332195,101.46505240393279
65,0.6019999980927,0.5680892467499,26.36986588817,0.1884896457195,104.16339874270325
66,0.6040000021458,0.5781447887421,26.35981034617,0.1932122409344,106.7732055922639
67,0.6060000061989,0.5881850719452,26.34977006297,0.1974389255047,109.10896164175517
68,0.6079999953508,0.5982100963593,26.33974503856,0.2022301852703,111.7567139866599
69,0.609999999404,0.6082351207733,26.32972001414,0.2072503268719,114.53095131622901
70,0.6120000034571,0.6182448863983,26.31971024852,0.2115533053875,116.90886902725667
71,0.613999992609,0.6282546520233,26.30970048289,0.2156197726727,119.15608558753812
72,0.6159999966621,0.6382644176483,26.29969071727,0.2200143039227,121.58459729243154
73,0.618499994278,0.6507613658905,26.28719376903,0.2250039279461,124.34196995734189
74,0.6209999918938,0.6632430553436,26.27471207957,0.230302542448,127.27009735149393
75,0.6235000044107,0.6757400035858,26.26221513133,0.2367417514324,130.82854158576131
76,0.6260000020266,0.688236951828,26.24971818309,0.243112295866,134.34904032462936
77,0.6284999996424,0.7007339000702,26.23722123485,0.2498795688152,138.0887797035087
78,0.6305000036955,0.7107436656952,26.22721146922,0.2552811801434,141.07382534081498
79,0.6324999928474,0.7207686901093,26.21718644481,0.2600495517254,143.70892918725323
80,0.6344999969006,0.7307937145233,26.20716142039,0.2641312777996,145.9645780798088
81,0.6365000009537,0.7408339977264,26.19712113719,0.2680985629559,148.15698448008746
82,0.6385000050068,0.7508742809296,26.18708085399,0.2724625766277,150.56863152032213
83,0.6404999941587,0.7608993053436,26.17705582957,0.277406424284,153.30070718835483
84,0.6424999982119,0.7709243297577,26.16703080516,0.2824876010418,156.10867384713094
85,0.644500002265,0.7809493541718,26.15700578074,0.287660330534,158.96723449977281
86,0.6464999914169,0.7909743785858,26.14698075633,0.2931992709637,162.0281711278225
87,0.64849999547,0.8010146617889,26.13694047313,0.2984406650066,164.92467727580842
88,0.6504999995232,0.8110702037811,26.12688493113,0.3030335605145,167.46280930076273
89,0.6525000035763,0.8211104869843,26.11684464793,0.3073441684246,169.84494317792746
90,0.6544999927282,0.8311660289764,26.10678910594,0.3118531405926,172.3366973751531
91,0.6564999967813,0.8412215709686,26.09673356395,0.3165070712566,174.90855872925917
92,0.6585000008345,0.8512771129608,26.08667802195,0.3215119540691,177.67436372649888
93,0.6605000048876,0.8613173961639,26.07663773875,0.3270203769207,180.71843568994507
94,0.6624999940395,0.8713729381561,26.06658219676,0.332597464323,183.80045314873527
95,0.6644999980927,0.8814284801483,26.05652665477,0.337953299284,186.76020178910866
96,0.6665000021458,0.8914992809296,26.04645585399,0.3430726230145,189.5892492786806
97,0.6685000061989,0.9015548229218,26.03640031199,0.3480851352215,192.35927044205738
98,0.670500010252,0.9116422533989,26.02631288152,0.3531485199928,195.15740486958734
99,0.672499999404,0.9217130541801,26.01624208074,0.3580465912819,197.86418354068715
100,0.6745000034571,0.9317991137505,26.00615602117,0.3629294037819,200.56252987945763
101,0.676499992609,0.9418851733208,25.99606996159,0.3680410981178,203.38736120283727
102,0.6784999966621,0.9519864916801,25.98596864324,0.3729391694069,206.09413987393708
103,0.6805000007153,0.9621030688286,25.97585206609,0.3783712983131,209.09605017579162
104,0.6825000047684,0.972219645977,25.96573548894,0.3841925263405,212.31298495157563
105,0.6844999939203,0.9823514819145,25.955603653,0.3896170258522,215.31067908729307
106,0.6864999979734,0.9924985766411,25.94545655827,0.3943930268288,217.94999909992367
107,0.6885000020266,1.002660989761,25.93529414515,0.3982992768288,220.10867617094004
108,0.6905000060797,1.012838602066,25.92511653285,0.4022398591042,222.2863259896561
109,0.6924999952316,1.02303147316,25.91492366176,0.4070082306862,224.92142983609435
110,0.6944999992847,1.033209085464,25.90474604945,0.4116392731667,227.48064269178926
111,0.6965000033379,1.043401956558,25.89455317836,0.4160719513893,229.9302352274232
112,0.6984999924898,1.053564310074,25.88439082484,0.4210997223854,232.7086887231294
113,0.7004999965429,1.063741922379,25.87421321254,0.4264402985573,235.6600050311734
114,0.702500000596,1.073904275894,25.86405085902,0.4317427277565,238.59024050842163
115,0.7045000046492,1.08406662941,25.85388850551,0.4369764924049,241.48253049027048
116,0.7064999938011,1.094228982925,25.84372615199,0.4421644806862,244.34952347524174
117,0.7084999978542,1.104391336441,25.83356379847,0.4469709992409,247.00570815247582
118,0.7105000019073,1.114553689957,25.82340144496,0.451266348362,249.37940969736644
119,0.7125000059605,1.124716043472,25.81323909144,0.4557142853737,251.8374345653298
120,0.7144999951124,1.134863138199,25.80309199672,0.4603987336159,254.42616058409462
121,0.7164999991655,1.144994974136,25.79296016078,0.4651060700417,257.0275351013259
122,0.7185000032187,1.155126810074,25.78282832484,0.4705381989479,260.0294454031804
123,0.7204999923706,1.165258646011,25.7726964889,0.4760923981667,263.0988143635594
124,0.7224999964237,1.175390481949,25.76256465297,0.4813414216042,265.9995366777377
125,0.7245000004768,1.185522317886,25.75243281703,0.4864912629128,268.84544883191313
126,0.72650000453,1.195654153824,25.74230098109,0.4912214875221,271.45947184755556
127,0.7284999936819,1.205785989761,25.73216914515,0.496073782444,274.14095352172257
128,0.730499997735,1.21590256691,25.72205256801,0.5009871125221,276.8561645250965
129,0.7325000017881,1.226019144058,25.71193599086,0.5062895417213,279.78640000234475
130,0.7345000058413,1.236135721207,25.70181941371,0.5119963288307,282.94009228579654
131,0.7364999949932,1.246252298355,25.69170283656,0.5175886750221,286.0305420769161
132,0.7384999990463,1.256353616714,25.6816015182,0.523173391819,289.1167757018987
133,0.7405000030994,1.266470193863,25.67148494105,0.5286512970924,292.14398300068603
134,0.7424999922514,1.276586771011,25.6613683639,0.5336104035378,294.88449100104816
135,0.7444999963045,1.286688089371,25.65126704554,0.5387144684792,297.70510615829073
136,0.7465000003576,1.296819925308,25.64113520961,0.5439558625221,300.60161230627665
137,0.7485000044107,1.306951761246,25.63100337367,0.5488691926003,303.31682330970585
138,0.7504999935627,1.317083597183,25.62087153773,0.5533247590065,305.7790643438063
139,0.7524999976158,1.327215433121,25.61073970179,0.5580244660378,308.3762226949005
140,0.7545000016689,1.337347269058,25.60060786586,0.5630522370338,311.1546761905514
141,0.756500005722,1.347479104996,25.59047602992,0.5679579377174,313.8656710277883
142,0.758499994874,1.357610940933,25.58034419398,0.5729323029518,316.61461136042453
143,0.7604999989271,1.367742776871,25.57021235804,0.5781126618385,319.47738817920344
144,0.7625000029802,1.377874612808,25.56008052211,0.5833082795143,322.3485973303118
145,0.7644999921322,1.387991189957,25.54996394496,0.5882521271706,325.08067299834454
146,0.7664999961853,1.398123025894,25.53983210902,0.5933790802956,327.91393665405354
147,0.7685000002384,1.408239603043,25.52971553187,0.5979490876198,330.4394201804862
148,0.7705000042915,1.418356180191,25.51959895472,0.6023665070534,332.880580383846
149,0.7724999934435,1.428442239761,25.50951289515,0.6068602204323,335.3639022487423
150,0.7744999974966,1.438513040543,25.49944209437,0.6113768219948,337.859872612105
151,0.7765000015497,1.448568582535,25.48938655238,0.6165342926979,340.7100009324175
152,0.7785000056028,1.458608865738,25.47934626918,0.6219816803932,343.72034356660134
153,0.7804999947548,1.468633890152,25.46932124476,0.6273985505104,346.71382153618174
154,0.7824999988079,1.478643655777,25.45931147914,0.6324720978737,349.5175720288208
155,0.7849999964237,1.49112534523,25.44682978969,0.6386061310768,352.90736961688737
156,0.7874999940395,1.503591775894,25.43436335902,0.6451826691628,356.5417048419534
157,0.7899999916553,1.51602768898,25.42192744594,0.6524229645729,360.54284652238044
158,0.7925000041723,1.528448343277,25.40950679164,0.6596251130104,364.52290737206687
159,0.7950000017881,1.540853738785,25.39710139613,0.666857779026,368.51983288635677
160,0.797499999404,1.553259134293,25.38469600062,0.6742582917213,372.60951405604885
161,0.7999999970198,1.565649271011,25.3723058639,0.6814375519753,376.5769264073241
162,0.8024999946356,1.578054666519,25.3599004684,0.6884413361549,380.44736693694966
163,0.8049999922514,1.590460062027,25.34749507289,0.6950941681862,384.123863823552
164,0.8075000047684,1.602865457535,25.33508967738,0.7015486359596,387.6907403900936
165,0.8100000023842,1.615301370621,25.32265376429,0.707873404026,391.1859421320287
166,0.8125,1.627737283707,25.31021785121,0.7135038971901,394.29747275394413
167,0.8149999976158,1.640173196793,25.29778193812,0.7194548249245,397.58608235433445
168,0.8174999952316,1.652593851089,25.28536128383,0.7257567048073,401.0686355978032
169,0.8199999928474,1.665014505386,25.27294062953,0.733004629612,405.0739934444225
170,0.8225000053644,1.677450418472,25.26050471644,0.7400389313698,408.96129863870686
171,0.8250000029802,1.689871072769,25.24808406215,0.7466993927956,412.6420116914463
172,0.827500000596,1.702306985855,25.23564814906,0.7525435090065,415.87159496564146
173,0.8299999982119,1.714727640152,25.22322749476,0.7586775422096,419.26139255370805
174,0.8324999958277,1.72713303566,25.21082209926,0.7653151154518,422.929457107981
175,0.8349999934435,1.739538431168,25.19841670375,0.7718916535378,426.56379233304705
176,0.8375000059605,1.751913309097,25.18604182582,0.7786055207253,430.2740185488565
177,0.8400000035763,1.764288187027,25.17366694789,0.7849531769753,433.78186878925806
178,0.8425000011921,1.776663064957,25.16129206996,0.7911787629128,437.22226037119043
179,0.8449999988079,1.789022684097,25.14893245082,0.7972822785378,440.5951932946535
180,0.8474999964237,1.80135178566,25.13660334926,0.8036604523659,444.11990819965865
181,0.8499999940395,1.813665628433,25.12428950648,0.810397207737,447.84278291393446
182,0.8524999916553,1.825964212418,25.1119909225,0.8170958161354,451.5445767974145
183,0.8550000041723,1.838232278824,25.09972285609,0.8241072297096,455.41923349323235
184,0.8575000017881,1.85050034523,25.08745478969,0.831637442112,459.580589487586
185,0.859999999404,1.862737894058,25.07521724086,0.8391523957253,463.7335131496103
186,0.8624999970198,1.874975442886,25.06297969203,0.8468733429909,468.0002732977773
187,0.8649999946356,1.887228250504,25.05072688441,0.8544569611549,472.1911424551456
188,0.8674999922514,1.899481058121,25.03847407679,0.8614454865456,476.05315065255235
189,0.8700000047684,1.911749124527,25.02620601039,0.8681288361549,479.74651220370293
190,0.8725000023842,1.924032449722,25.01392268519,0.8752546906471,483.684411391853
191,0.875,1.936331033707,25.00162410121,0.8822889924049,487.5717165861373
192,0.8774999976158,1.948660135269,24.98929499965,0.8900251984596,491.8469090666337
193,0.8799999952316,1.96101975441,24.97693538051,0.8971586823463,495.78902442092084
194,0.8824999928474,1.973440408707,24.96451472621,0.9031172394753,499.08185018750345
195,0.8850000053644,1.985876321793,24.95207881312,0.9089232087135,502.29035263090276
196,0.8875000029802,1.998342752457,24.93961238246,0.9151030182838,505.70544721590227
197,0.890000000596,2.01082444191,24.92713069301,0.9214125275612,509.1922166255633
198,0.8924999982119,2.023321390152,24.91463374476,0.9279890656471,512.8265518505741
199,0.894500002265,2.033331155777,24.90462397914,0.9335814118385,515.9170016416937
200,0.8969999998808,2.045828104019,24.8921270309,0.9403944611549,519.6820380175059
201,0.8994999974966,2.058325052261,24.87963008265,0.9472990632057,523.4976683871839
202,0.9015000015497,2.068334817886,24.86962031703,0.9528532624245,526.5670373475629
203,0.9039999991655,2.080831766129,24.85712336879,0.959696829319,530.3489383879786
204,0.9060000032187,2.090841531754,24.84711360316,0.9651060700417,533.338200191422
205,0.9085000008345,2.103338479996,24.83461665492,0.9715147614479,536.8797797610306
206,0.9109999984503,2.115820169449,24.82213496547,0.9779768586159,540.4508724937643
207,0.9134999960661,2.128286600113,24.8096685348,0.9846449494362,544.1358017126408
208,0.9159999936819,2.140737771988,24.79721736293,0.9915724396706,547.9640805807853
209,0.9185000061989,2.153158426285,24.78479670863,0.9988279938698,551.9736545935417
210,0.9210000038147,2.165577411652,24.77237772326,1.005939364433,555.9035496535815
211,0.9235000014305,2.177952289581,24.76000284533,1.013126254082,559.8751781712702
212,0.9259999990463,2.190327167511,24.7476279674,1.02080142498,564.1166413222832
213,0.9284999966621,2.202671527863,24.73528360705,1.027332186699,567.7256795505269
214,0.930999994278,2.214985370636,24.72296976428,1.033801913261,571.3009884491214
215,0.9334999918938,2.227268695831,24.71068643908,1.04179751873,575.7195305789962
216,0.9360000044107,2.239536762238,24.69841837268,1.050372958183,580.4585013363928
217,0.9385000020266,2.251820087433,24.68613504748,1.058154940605,584.7589908138773
218,0.9409999996424,2.264103412628,24.67385172229,1.065479159355,588.806510322033
219,0.9434999972582,2.276386737823,24.66156839709,1.072605013847,592.7444095100726
220,0.945999994874,2.288670063019,24.6492850719,1.07924258709,596.4124740647877
221,0.9484999924898,2.300968647003,24.63698648791,1.086261630058,600.2913469263557
222,0.9510000050068,2.313282489777,24.62467264514,1.093852877617,604.4864322501375
223,0.9535000026226,2.32559633255,24.61235880237,1.101436495781,608.6773014075058
224,0.9560000002384,2.337925434113,24.6000297008,1.108699679375,612.691091586565
225,0.9584999978542,2.350269794464,24.58768534045,1.115787386894,616.607909943643
226,0.96099999547,2.362629413605,24.57532572131,1.123554110527,620.8999670888534
227,0.9634999930859,2.375004291534,24.56295084338,1.130390048027,624.677651963132
228,0.9660000056028,2.387409687042,24.55054544787,1.136867403984,628.2571770281401
229,0.9685000032187,2.399799823761,24.53815531115,1.14344394207,631.891512253206
230,0.9710000008345,2.412205219269,24.52574991565,1.150379061699,635.7240072875427
231,0.9734999984503,2.424625873566,24.51332926135,1.157329440117,639.5649346541536
232,0.9759999960661,2.437031269073,24.50092386584,1.164455294609,643.5028338421932
233,0.9784999936819,2.44945192337,24.48850321155,1.172481417656,647.9382406366161
234,0.9810000061989,2.461872577667,24.47608255725,1.180599093437,652.4242414246839
235,0.9835000038147,2.474308490753,24.46364664416,1.187702059746,656.3494921145885
236,0.9860000014305,2.486759662628,24.45119547229,1.194370150566,660.0344213332993
237,0.9884999990463,2.499195575714,24.4387595592,1.201755404472,664.1156701705515
