,time,travel,position,force,stress
0,0.0,0.0,18.39567696362,-0.009881014935672,-5.460459617281407
1,0.0,0.0,18.39568209893,-0.009946341626346,-5.496560539977943
2,0.0,0.0,18.3956763536,-0.009530390612781,-5.266697137571852
3,0.0,0.0,18.39567185159,-0.009028638713062,-4.989418335328701
4,0.0,0.0,18.39567372168,-0.008994008414447,-4.970280893643543
5,0.0,0.0,18.38684902251,-0.007979820482433,-4.409819009601267
6,0.0,0.0,18.38684658202,-0.008446167223155,-4.667532165784256
7,0.007999986410141,-1.624785363674e-05,18.38686282987,-0.008983920328319,-4.964706002068515
8,0.01099999248981,-1.669488847256e-05,18.38686327691,-0.009204219095409,-5.086447799774847
9,0.01299999654293,-2.288864925504e-05,18.38686947067,-0.009341667406261,-5.162404668148899
10,0.01399999856949,-1.705484464765e-05,18.38686363687,-0.009391139261425,-5.189743870556111
11,0.1144999861717,-4.081425140612e-05,18.38688739627,-0.01028265338391,-5.682413590798198
12,0.2144999951124,-4.086289482075e-05,18.38688744492,-0.006765653379261,-3.738844369985326
13,0.3149999976158,-5.493505341292e-06,18.38685207553,-0.007880878634751,-4.355141634124754
14,0.4155000001192,-4.223554788041e-05,18.38688881757,-0.007727910764515,-4.270608326200105
15,0.5159999877214,0.004946453962475,18.38190012806,0.001241867430508,0.6862824313547883
16,0.5284999907017,0.01527570001781,18.371570882,0.05597514286637,30.933057907839686
17,0.5344999879599,0.02611325494945,18.36073332707,0.06777948886156,37.45639129360881
18,0.5389999896288,0.03718350827694,18.34966307374,0.06814276427031,37.657145033213986
19,0.5424999892712,0.04740689694881,18.33943968507,0.07225691527128,39.930712631932195
20,0.5459999889135,0.0590493530035,18.32779722902,0.08632551878691,47.705323020517376
21,0.5489999949932,0.07031796872616,18.31652861329,0.1028050109744,56.81224191386218
22,0.551499992609,0.08073972165585,18.30610686037,0.1119145080447,61.84634430212393
23,0.5539999902248,0.09209226071835,18.2947543213,0.1153706237674,63.75626757005908
24,0.5564999878407,0.1043298095465,18.28251677247,0.1149797365069,63.54025493221108
25,0.5584999918938,0.1147363036871,18.27211027833,0.1134328767657,62.685427244426954
26,0.5604999959469,0.1256463378668,18.26120024415,0.1114091798663,61.567089171998994
27,0.5625,0.1369988769293,18.24984770509,0.1083116456866,59.855325713334565
28,0.564499989152,0.1487634032965,18.23808317872,0.1039552614093,57.447894839236966
29,0.5664999932051,0.1608941406012,18.22595244142,0.09972857683897,55.11213878972911
30,0.5684999972582,0.1733300536871,18.21351652833,0.09635256975889,53.24648526643755
31,0.5704999864101,0.186010107398,18.20083647462,0.09273242205381,51.24591442620748
32,0.5724999904633,0.1988732665777,18.18797331544,0.08799456804991,48.6276752443727
33,0.5744999945164,0.2118279784918,18.17501860353,0.08356951922178,46.18229887485921
34,0.5764999985695,0.2248437255621,18.16200285646,0.07833575457335,43.29000889299375
35,0.5784999877214,0.2378289550543,18.14901762697,0.07275103777647,40.20377526802226
36,0.5804999917746,0.2507226169109,18.13612396511,0.07053326815367,38.978188469037306
37,0.5824999958277,0.2634942233562,18.12335235866,0.07416676729918,40.98613760003763
38,0.5844999998808,0.2761590182781,18.11068756374,0.08233021944761,45.49743538516537
39,0.5864999890327,0.2887475192547,18.09809906277,0.09147023409605,50.54840243805272
40,0.5884999930859,0.301274985075,18.08557159695,0.1001067087054,55.321102524739175
41,0.590499997139,0.3137414157391,18.07310516628,0.1072020456195,59.242137048285734
42,0.5924999862909,0.3261315524578,18.06071502956,0.1121458932757,61.9742127162632
43,0.594499990344,0.3384606540203,18.048385928,0.1140656396747,63.035105524887214
44,0.5964999943972,0.3506982028484,18.03614837917,0.1128363534808,62.35577575324205
45,0.5984999984503,0.3627526462078,18.02409393581,0.1114516183734,61.59054159624345
46,0.6004999876022,0.3745782077312,18.01226837429,0.1131629869342,62.53628036674131
47,0.6024999916553,0.3861748874187,18.0006716946,0.1187171861529,65.6056493270651
48,0.6044999957085,0.3975274264812,17.98931915554,0.1277122348547,70.57650510568942
49,0.6064999997616,0.4086510837078,17.97819549831,0.1395225375891,77.1031303126043
50,0.6084999889135,0.4195916354656,17.96725494656,0.1527366489172,84.40553009188808
51,0.6104999929667,0.4303795993328,17.95646698269,0.1659812778234,91.72479453577535
52,0.6124999970198,0.4410302340984,17.94581634792,0.1785697788,98.68146869043868
53,0.6144999861717,0.4515893161297,17.93525726589,0.1898307651281,104.90452993421425
54,0.6164999902248,0.4620568454266,17.92478973659,0.2002677768469,110.67224523336377
55,0.618499994278,0.4724633395672,17.91438324245,0.2109489291906,116.57487784939653
56,0.6204999983311,0.4828240573406,17.90402252468,0.2214622348547,122.38475481008244
57,0.622499987483,0.4931237399578,17.89372284206,0.2310142368078,127.66339483528834
58,0.6244999915361,0.5034234523773,17.88342312964,0.2400626987219,132.6637678943431
59,0.6264999955893,0.5136773586273,17.87316922339,0.2496452182531,137.9592725841525
60,0.6284999996424,0.5239007472992,17.86294583472,0.2596549987793,143.49089081335293
61,0.6304999887943,0.534108877182,17.85273770484,0.2692680358887,148.80326016782112
62,0.6324999928474,0.5443017482758,17.84254483375,0.277904510498,153.57596025447995
63,0.6344999969006,0.5544793605804,17.83236722144,0.2860069274902,158.05352871038411
64,0.6364999860525,0.5646417140961,17.82220486792,0.2939872741699,162.46363850781898
65,0.6384999901056,0.5747888088226,17.8120577732,0.3023796081543,167.10142127759454
66,0.6404999941587,0.5849359035492,17.80191067847,0.3116264343262,172.21141465665497
67,0.6424999982119,0.5950677394867,17.79177884253,0.3215293884277,177.68399832493927
68,0.6444999873638,0.6051995754242,17.7816470066,0.3314323425293,183.15658199327885
69,0.6464999914169,0.6153161525726,17.77153042945,0.3410301208496,188.46051901541765
70,0.64849999547,0.6254327297211,17.7614138523,0.3504753112793,193.68013271448368
71,0.6504999995232,0.6355798244476,17.75126675757,0.3594627380371,198.64677644427616
72,0.6524999886751,0.6457116603851,17.74113492164,0.3684349060059,203.60498784179453
73,0.6544999927282,0.6558282375336,17.73101834449,0.377513885498,208.62222556539754
74,0.6564999967813,0.6659600734711,17.72088650855,0.386547088623,213.6141662921229
75,0.6584999859333,0.6760766506195,17.7107699314,0.3960075378418,218.84221232351828
76,0.6604999899864,0.686208486557,17.70063809546,0.4056510925293,224.17144634258997
77,0.6624999940395,0.6963098049164,17.6905367771,0.4156913757324,229.71992100167296
78,0.6644999980927,0.7064263820648,17.68042019996,0.4262809753418,235.5719596238952
79,0.6664999872446,0.7165277004242,17.6703188816,0.4369468688965,241.46615990765386
80,0.6684999912977,0.7266290187836,17.66021756324,0.4470176696777,247.03149923134035
81,0.6704999953508,0.736745595932,17.65010098609,0.4569053649902,252.49565056735054
82,0.672499999404,0.7468621730804,17.63998440894,0.4675407409668,258.37298618650567
83,0.6744999885559,0.7569634914398,17.62988309058,0.4787406921387,264.56231810107425
84,0.676499992609,0.7670953273773,17.61975125464,0.4894065856934,270.4565183848329
85,0.6784999966621,0.7772424221039,17.60960415992,0.4998741149902,276.24109834853067
86,0.6804999858141,0.7873742580414,17.59947232398,0.510814666748,282.28708061383134
87,0.6824999898672,0.7975213527679,17.58932522925,0.5223197937012,288.6450591746007
88,0.6844999939203,0.8076837062836,17.57916287574,0.5338554382324,295.0199023999183
89,0.6864999979734,0.8178613185883,17.56898526343,0.5448112487793,301.07431699754835
90,0.6884999871254,0.8280389308929,17.55880765113,0.5552940368652,306.8673292935755
91,0.6904999911785,0.8382165431976,17.54863003882,0.5659446716309,312.75309724506
92,0.6924999952316,0.8483941555023,17.53845242652,0.5768394470215,318.7737825134278
93,0.6944999992847,0.858571767807,17.52827481421,0.5877342224121,324.7944677817956
94,0.6964999884367,0.8687188625336,17.51812771949,0.5989189147949,330.9753673640348
95,0.6984999924898,0.8788659572601,17.50798062476,0.6100883483887,337.14783461399986
96,0.7004999965429,0.8889825344086,17.49786404761,0.6218376159668,343.6407304916525
97,0.702500000596,0.8991022706032,17.48774431142,0.6342396140099,350.4943391471226
98,0.704499989748,0.9091883301735,17.47765825185,0.6467670798302,357.41728397252365
99,0.7064999938011,0.9192896485329,17.46755693349,0.6588825583458,364.1125558255841
100,0.7084999978542,0.9293604493141,17.45748613271,0.6706165671349,370.5970193709626
101,0.7104999870062,0.9394312500954,17.44741533193,0.6826404929161,377.24169723015723
102,0.7124999910593,0.9494867920876,17.43735978993,0.6951221823692,384.1393450586254
103,0.7144999951124,0.9595423340797,17.42730424794,0.7078785300255,391.1887748686909
104,0.7164999991655,0.9695826172829,17.41726396474,0.7208332419395,398.3478249987068
105,0.7184999883175,0.9796076416969,17.40723894032,0.7340626120567,405.6586571103199
106,0.7209999859333,0.9921045899391,17.39474199208,0.7504047751427,414.6896850129269
107,0.7234999984503,1.004601597786,17.38224498423,0.7660908102989,423.3581226261994
108,0.7259999960661,1.01706802845,17.36977855357,0.7816395163536,431.9506692487285
109,0.7284999936819,1.029534459114,17.35731212291,0.7976612448692,440.8046181728053
110,0.7309999912977,1.041955113411,17.34489146861,0.8140034079552,449.8356460754122
111,0.7334999889135,1.054360508919,17.3324860731,0.8307117819786,459.0690499533717
112,0.7359999865294,1.066720128059,17.32012645396,0.8470997214317,468.1253748528563
113,0.7384999990463,1.079033970833,17.30781261119,0.8645405173302,477.7635306816866
114,0.7409999966621,1.091332554817,17.2955140272,0.8825916647911,487.73897980280793
115,0.743499994278,1.103615880013,17.28323070201,0.9009937644005,497.908372567063
116,0.7459999918938,1.115899205208,17.27094737681,0.919197499752,507.96814501125715
117,0.7484999895096,1.128182530403,17.25866405162,0.937981069088,518.3483460832493
118,0.7509999871254,1.140465855598,17.24638072642,0.956291615963,528.4671448536386
119,0.7534999996424,1.152764439583,17.23408214244,0.9739460349083,538.2233533347486
120,0.7559999972582,1.165063023567,17.22178355845,0.9920276999474,548.2156671205288
121,0.758499994874,1.177346348763,17.20950023326,1.010490894318,558.4188221529852
122,0.7609999924898,1.189629673958,17.19721690806,1.028908252716,568.5966472492933
123,0.7634999901056,1.201912999153,17.18493358287,1.047478199005,578.8587956688951
124,0.7659999877214,1.214211583138,17.17263499888,1.06627702713,589.2474290731615
125,0.7685000002384,1.226525425911,17.16032115611,1.085075855255,599.6360624774277
126,0.7709999978542,1.238824009895,17.14802257213,1.104149341583,610.1764778631808
127,0.77349999547,1.251137852669,17.13570872935,1.123222827911,620.7168932489338
128,0.7759999930859,1.263436436653,17.12341014537,1.142815113068,631.5440079336648
129,0.7784999907017,1.275719761848,17.11112682017,1.162651538849,642.5060399347817
130,0.7809999883175,1.288018345833,17.09882823619,1.182106494904,653.2572636284931
131,0.7834999859333,1.300301671028,17.08654491099,1.201836109161,664.1602693031384
132,0.7859999984503,1.312584996223,17.0742615858,1.22252702713,675.5945119138164
133,0.7884999960661,1.324883580208,17.06196300181,1.243675708771,687.2817244938233
134,0.7909999936819,1.337182164192,17.04966441783,1.264610767365,698.8508844214399
135,0.7934999912977,1.349480748177,17.03736583384,1.285698413849,710.5043676717976
136,0.7959999889135,1.36179459095,17.02505199107,1.307274341583,722.4276855560323
137,0.7984999865294,1.374108433723,17.0127381483,1.328453540802,734.1317628005875
138,0.8009999990463,1.386452794075,17.00039378795,1.349541187286,745.7852460509451
139,0.8034999966621,1.398797154427,16.98804942759,1.371544361115,757.9446692405131
140,0.805999994278,1.411141514778,16.97570506724,1.394463062286,770.6100323676335
141,0.8084999918938,1.42348587513,16.96336070689,1.41735124588,783.2585308307582
142,0.8109999895096,1.435860753059,16.95098582896,1.439720630646,795.6203299954576
143,0.8134999871254,1.448266148567,16.93858043345,1.461967945099,807.9146705014115
144,0.8159999996424,1.460671544075,16.92617503795,1.484276294708,820.2427403364619
145,0.8184999972582,1.473076939583,16.91376964244,1.506737232208,832.655133494806
146,0.820999994874,1.485512852669,16.90133372935,1.529778003693,845.3879552812245
147,0.8234999924898,1.497964024544,16.88888255748,1.553032398224,858.2388297194808
148,0.8259999901056,1.510415196419,16.8764313856,1.575737476349,870.7861401947634
149,0.8284999877214,1.522881627083,16.86396495494,1.598686695099,883.4683679869846
150,0.8310000002384,1.535363316536,16.85148326548,1.62227678299,896.5047537363768
151,0.8334999978542,1.547814488411,16.83903209361,1.645317554474,909.2375755222427
152,0.83599999547,1.560280919075,16.82656566295,1.668541431427,922.0715852959506
153,0.8384999930859,1.57273209095,16.81411449107,1.691917896271,934.9899183929524
154,0.8409999907017,1.585152745247,16.80169383677,1.715721607208,948.1443567941822
155,0.8434999883175,1.597558140755,16.78928844127,1.739433765411,961.2482012017671
156,0.8459999859333,1.609933018684,16.77691356334,1.763420581818,974.5038275913915
157,0.8484999984503,1.622292637825,16.7645539442,1.787834644318,987.9955592852439
158,0.8509999960661,1.634621739388,16.75222484263,1.81285905838,1001.8245842711663
159,0.8534999936819,1.64695084095,16.73989574107,1.838280200958,1015.8728498973209
160,0.8559999912977,1.659279942513,16.72756663951,1.862907886505,1029.4826342435636
161,0.8584999889135,1.671593785286,16.71525279673,1.887627124786,1043.1430125834509
162,0.8609999865294,1.683907628059,16.70293895396,1.913322925568,1057.343060191645
163,0.8634999990463,1.696251988411,16.69059459361,1.938774585724,1071.408190482348
164,0.8659999966621,1.708581089973,16.67826549205,1.964195728302,1085.4564561085026
165,0.868499994278,1.720910191536,16.66593639048,1.990288257599,1099.8757443563763
166,0.8709999918938,1.733269810677,16.65357677134,2.015739917755,1113.9408746470792
167,0.8734999895096,1.745614171028,16.64123241099,2.041405200958,1128.1240575901725
168,0.8759999871254,1.757989048958,16.62885753306,2.068047046661,1142.8469098010198
169,0.8784999996424,1.770379185677,16.61646739634,2.094780445099,1157.6203560060644
170,0.8809999972582,1.782799839973,16.60404674205,2.120750904083,1171.9721855951927
171,0.883499994874,1.795235753059,16.59161082896,2.147270679474,1186.627579147847
172,0.8859999924898,1.807671666145,16.57917491588,2.174461841583,1201.653995321668
173,0.8884999901056,1.820138096809,16.56670848521,2.201408863068,1216.5454941791027
174,0.8909999877214,1.832635045052,16.55421153697,2.227928638458,1231.2008877312046
175,0.8935000002384,1.845147252083,16.54169932994,2.25508928299,1246.2104392410297
176,0.8954999893904,1.855172276497,16.53167430552,2.276543140411,1258.0662984665187
177,0.8974999934435,1.8652125597,16.52163402232,2.29772233963,1269.770375711074
178,0.8994999974966,1.875252842903,16.51159373912,2.319237232208,1281.6599642662122
179,0.9014999866486,1.885293126106,16.50155345591,2.340752124786,1293.5495528213505
180,0.9034999907017,1.895348668098,16.49149791392,2.361900806427,1305.2367654013574
181,0.9054999947548,1.905404210091,16.48144237193,2.383232593536,1317.0251659686535
182,0.9074999988079,1.915444493294,16.47140208873,2.404839038849,1328.9653485179892
183,0.9094999879599,1.925484776497,16.46136180552,2.426292896271,1340.8212077440312
184,0.911499992013,1.935509800911,16.45133678111,2.44796037674,1352.7951196224633
185,0.9134999960661,1.945534825325,16.4413117567,2.470146656036,1365.0557307987679
186,0.9159999936819,1.958031773567,16.42881480845,2.498131275177,1380.5206282530535
187,0.9184999912977,1.970528721809,16.41631786021,2.52526140213,1395.5133150977776
188,0.9209999889135,1.982979893684,16.40386668834,2.552757740021,1410.7083779181862
189,0.9234999865294,1.99541580677,16.39143077525,2.581108570099,1426.3756513476033
190,0.9259999990463,2.007836341858,16.37901024016,2.609611988068,1442.1272481003139
191,0.9284999966621,2.020256996155,16.36658958587,2.637657642365,1457.625874883696
192,0.930999994278,2.032647132874,16.35419944915,2.666069507599,1473.3268776422094
193,0.9334999918938,2.045052528381,16.34179405364,2.694145679474,1488.8423690901395
194,0.9359999895096,2.057457923889,16.32938865813,2.72203874588,1504.2566725502277
195,0.9384999871254,2.069878578186,16.31696800383,2.750572681427,1520.025133967487
196,0.9409999996424,2.082283973694,16.30456260833,2.77916765213,1535.8273247138422
197,0.9434999972582,2.094704627991,16.29214195403,2.807671070099,1551.5789214665529
198,0.945999994874,2.107125282288,16.27972129973,2.836876392365,1567.718405505531
199,0.9484999924898,2.119561195374,16.26728538665,2.866508960724,1584.093994848737
200,0.9509999901056,2.131997108459,16.25484947356,2.895592212677,1600.1660202289697
201,0.9534999877214,2.144474029541,16.24237255248,2.924143314362,1615.9439680202443
202,0.9560000002384,2.156940460205,16.22990612182,2.953196048737,1631.9991287359285
203,0.9584999978542,2.169422149658,16.21742443236,2.98276758194,1648.3409887500382
204,0.96099999547,2.1819190979,16.20492748412,3.012400150299,1664.7165780932442
205,0.9629999995232,2.191928863525,16.1949177185,3.03599023819,1677.7529638426363
206,0.9649999886751,2.20193862915,16.18490795287,3.05942773819,1690.7050262687346
207,0.9669999927282,2.211963653564,16.17488292846,3.083078861237,1703.775141347223
208,0.9689999967813,2.222003936768,16.16484264525,3.107309818268,1717.1656850532333
209,0.9709999859333,2.232044219971,16.15480236205,3.13135766983,1730.4550407714016
210,0.9729999899864,2.242084503174,16.14476207885,3.154947757721,1743.4914265207938
211,0.9749999940395,2.252140045166,16.13470653685,3.178385257721,1756.443488946892
212,0.9769999980927,2.262195587158,16.12465099486,3.202372074127,1769.6991153359638
213,0.9789999872446,2.27225112915,16.11459545287,3.22657251358,1783.0727943774257
214,0.9809999912977,2.282321929932,16.10452465209,3.250956058502,1796.54766140673
215,0.9829999953508,2.292392730713,16.09445385131,3.275492191315,1810.1068517593278
216,0.984999999404,2.302478790283,16.08436779174,3.299479007721,1823.3624781483995
217,0.9869999885559,2.312564849854,16.07428173217,3.323404788971,1836.584375208375
218,0.988999992609,2.322650909424,16.0641956726,3.348032474518,1850.1941595546175
219,0.9909999966621,2.332767486572,16.05407909545,3.372934818268,1863.9557258823468
220,0.9929999858141,2.342868804932,16.04397777709,3.397287845612,1877.4137282471027
221,0.9949999898672,2.35298538208,16.03386119994,3.421518802643,1890.8042719531131
222,0.9969999939203,2.363117218018,16.023729364,3.445749759674,1904.1948156591234
223,0.9989999979734,2.373233795166,16.01361278685,3.470011234283,1917.602224029682
224,1.000999987125,2.383380889893,16.00346569213,3.494516849518,1931.1445497177315
225,1.002999991179,2.39351272583,15.99333385619,3.519449710846,1944.9229807100094
226,1.004999995232,2.403644561768,15.98320202025,3.544718265533,1958.88692301287
227,1.006999999285,2.413776397705,15.97307018432,3.56983423233,1972.7665419929897
228,1.008999988437,2.423923492432,15.96292308959,3.595041751862,1986.6967549673068
229,1.01099999249,2.434070587158,15.95277599486,3.620340824127,2000.6775619347159
230,1.012999996543,2.444217681885,15.94262890014,3.645761966705,2014.7258275608706
231,1.014999985695,2.4543800354,15.93246654662,3.671061038971,2028.7066345288324
232,1.016999989748,2.464542388916,15.9223041931,3.696268558502,2042.6368475025968
233,1.018999993801,2.474720001221,15.9121265808,3.721720218658,2056.7019777932996
234,1.020999997854,2.484897613525,15.9019489685,3.747538089752,2070.9694840596867
235,1.022999987006,2.495090484619,15.8917560974,3.773355960846,2085.2369903260737
236,1.024999991059,2.505268096924,15.8815784851,3.798990726471,2099.403308604619
237,1.026999995112,2.515460968018,15.871385614,3.824289798737,2113.3841155725804
238,1.028999999166,2.525653839111,15.86119274291,3.849710941315,2127.432381198735
239,1.030999988317,2.535846710205,15.85099987182,3.875223636627,2141.5312408185346
