,time,travel,position,force,stress
0,0.0,0.0,21.91652835009,-0.01425393577665,-7.877028949195354
1,0.0,0.0,21.91652759013,-0.0144165372476,-7.966885990360998
2,0.0,0.0,21.91652712819,-0.01565288752317,-8.650119524215139
3,0.0,0.0,21.91651107778,-0.01567085087299,-8.66004645448716
4,0.0,0.0,21.91651084309,-0.01570542156696,-8.679150957374114
5,0.0,0.0,21.94087364705,-0.01486412994564,-8.214235262530805
6,0.0,0.0,21.94087836931,-0.0150324832648,-8.307270897705255
7,0.008000001311302,1.784414052963e-06,21.94087658489,-0.01551194302738,-8.572230589470092
8,0.01100000739098,-7.70203769207e-07,21.94087913951,-0.01548786275089,-8.558923315045082
9,0.01299999654293,-3.929249942303e-06,21.94088229856,-0.01513738743961,-8.365243182330211
10,0.01399999856949,-6.45499676466e-06,21.9408848243,-0.01500387303531,-8.29146027462773
11,0.1140000075102,-1.629674807191e-05,21.94089466606,-0.01360628381371,-7.5191226599416385
12,0.2144999951124,-1.480341779825e-05,21.94089317273,-0.01400514319539,-7.7395408620004895
13,0.3145000040531,1.130347527578e-06,21.94087723896,-0.01387311704457,-7.666580394915769
14,0.4150000065565,-1.09159573185e-05,21.94088928526,-0.01516708079726,-8.381652365132272
15,0.5154999941587,0.002361859660596,21.93851650965,-0.0125110661611,-6.913882023919472
16,0.5555000007153,0.01238283142447,21.92849553788,-0.0002694044960663,-0.14887867097268306
17,0.5700000077486,0.02264818176627,21.91823018754,0.01701117493212,9.400738118916095
18,0.5789999961853,0.03300508484244,21.90787328447,0.01844585873187,10.193574988721913
19,0.5865000039339,0.04367097839713,21.89720739091,0.01430118922144,7.9031422107108
20,0.5929999947548,0.05387529358268,21.88700307572,0.01154888514429,6.382160270535801
21,0.5995000004768,0.06451066583395,21.87636770347,0.01137358788401,6.285287265382923
22,0.6060000061989,0.0753024443984,21.86557592491,0.01155669335276,6.386475253086816
23,0.6124999970198,0.08594163507223,21.85493673424,0.01312149409205,7.251217519100204
24,0.6190000027418,0.0961993560195,21.84467901329,0.01328457240015,7.341338070645961
25,0.6260000020266,0.1063617095351,21.83451665977,0.01938880421221,10.714666774354802
26,0.633499994874,0.1164630278945,21.82441534141,0.03679526597261,20.333848826117702
27,0.6410000026226,0.1264956891537,21.81438268015,0.04993308335543,27.59408694387614
28,0.64849999547,0.1368101090193,21.80406826029,0.0590264312923,32.61926497654055
29,0.6560000032187,0.1473310440779,21.79354732523,0.06511659175158,35.98481755055867
30,0.6634999960661,0.1577680557966,21.78311031351,0.07421464473009,41.01259568959272
31,0.6710000038147,0.1679952591658,21.77288311014,0.0818592980504,45.23719417622886
32,0.679000005126,0.1783864945173,21.76249187479,0.09122819453478,50.41464621374746
33,0.6875,0.1886136978865,21.75226467142,0.1047055199742,57.86250372535108
34,0.6969999969006,0.199004933238,21.74187343607,0.1188809350133,65.69614044011482
35,0.7074999958277,0.2094858139753,21.73139255533,0.1401936560869,77.47400470956707
36,0.7185000032187,0.2198846787214,21.72099369059,0.1586529761553,87.67501871998819
37,0.7294999957085,0.2301404923201,21.71073787699,0.1762578040361,97.40382212106923
38,0.7405000030994,0.2405145615339,21.70036380777,0.1944615393877,107.4635945653186
39,0.7510000020266,0.2505681812763,21.69031018803,0.2131154090166,117.77212081264922
40,0.7615000009537,0.2607953846455,21.68008298466,0.2329937964678,128.7573417277686
41,0.7719999998808,0.2711789906025,21.66969937871,0.2523114085197,139.4326661957945
42,0.7824999988079,0.2815854847431,21.65929288456,0.2736622691154,151.23160717868205
43,0.792999997735,0.2919309437275,21.64894742558,0.2953526377678,163.2181675554701
44,0.8034999966621,0.3022573292255,21.63862104008,0.3169667124748,175.1625662706665
45,0.8139999955893,0.3126371204853,21.62824124882,0.3399006724358,187.8363617306136
46,0.8240000009537,0.3226583302021,21.61822003911,0.3615910410881,199.82292210734633
47,0.8340000063181,0.3328779041767,21.60800046513,0.3846012949944,212.5388792288298
48,0.8439999967813,0.3432157337666,21.59766263554,0.4077488780022,225.33072734105667
49,0.8540000021458,0.353519231081,21.58735913823,0.4321095347404,238.7929458717838
50,0.8640000075102,0.3636930286884,21.57718534062,0.4571949839592,252.65570018724472
51,0.8739999979734,0.3737218677998,21.56715650151,0.4822422862053,266.4973736719098
52,0.8844999969006,0.3840864002705,21.55679196904,0.5101506114006,281.92010946443787
53,0.8950000107288,0.3943778276443,21.54650054166,0.5387198328972,297.70807065010155
54,0.9054999947548,0.4047499895096,21.5361283798,0.5677573084831,313.75479903345644
55,0.9155000001192,0.4147673845291,21.52611098478,0.5954214930534,329.04261750904595
56,0.9255000054836,0.4248458147049,21.5160325546,0.6229407191277,344.250328827755
57,0.9354999959469,0.4348937273026,21.50598464201,0.6495901942253,358.97739720479467
58,0.945999994874,0.4453917741776,21.49548659513,0.6782919764519,374.83861427740055
59,0.9564999938011,0.4557944536209,21.48508391569,0.7066275477409,390.4974553745434
60,0.9670000076294,0.466136097908,21.4747422714,0.7370077967644,407.28622900111543
61,0.9775000065565,0.476447224617,21.46443114469,0.7681280970573,424.4839707445849
62,0.9880000054836,0.4867507219315,21.45412764738,0.7994696497917,441.80398130658165
63,0.9985000044107,0.4970103502274,21.44386801908,0.8317038416862,459.6172833086038
64,1.009000003338,0.5073004961014,21.43357787321,0.8644949793816,477.7383654399576
65,1.019500002265,0.5177031755447,21.42317519376,0.8961111903191,495.2101579834964
66,1.030000001192,0.5281287431717,21.41274962614,0.9298178553581,513.8371800532867
67,1.040500000119,0.5385009050369,21.40237746427,0.9639975428581,532.72560442468
68,1.050999999046,0.5488959550858,21.39198241422,0.9992148280144,552.1874273930897
69,1.061499997973,0.5593329668045,21.3815454025,1.033180952072,570.9578320508659
70,1.071999996901,0.5697280168533,21.37115035245,1.067612409592,589.9853899056112
71,1.082499995828,0.5801001787186,21.36077819059,1.101189374924,608.5407371507953
72,1.092999994755,0.5905791521072,21.3502992172,1.135506391525,627.5050525126557
73,1.103000000119,0.6006232500076,21.3402551193,1.167061567307,644.9431157273742
74,1.113499999046,0.61108314991,21.3297952194,1.202255964279,664.3922901969306
75,1.123999997973,0.6215277910233,21.31935057828,1.239205121994,684.8111828824316
76,1.134000003338,0.6315451860428,21.30933318326,1.274376630783,704.247708853853
77,1.143999993801,0.6416312456131,21.29924712369,1.308502912521,723.1066200620106
78,1.153999999166,0.6517123579979,21.28916601131,1.342473268509,741.8793633747938
79,1.16400000453,0.6617907881737,21.27908758113,1.3773624897,761.1598911983153
80,1.173999994993,0.6718654036522,21.26901296566,1.411900758743,780.2464753789792
81,1.184000000358,0.6819400191307,21.25893835018,1.445996522903,799.0885219225886
82,1.194000005722,0.6919726729393,21.24890569637,1.480290651321,818.040188786314
83,1.203999996185,0.7019938826561,21.23888448665,1.51433300972,836.8527221672404
84,1.21400000155,0.7119960188866,21.22888235042,1.547963380814,855.4375825756601
85,1.224500000477,0.7224940657616,21.21838430355,1.583363771439,875.000593531746
86,1.234999999404,0.7329921126366,21.20788625667,1.619878053665,895.179164746053
87,1.245499998331,0.7434024214745,21.19747594783,1.656491518021,915.4125461209708
88,1.255999997258,0.753663957119,21.18721441219,1.694295167923,936.3036494154803
89,1.266499996185,0.7638415694237,21.17703679988,1.732228517532,957.2664275345962
90,1.276999995112,0.774057328701,21.16682104061,1.769063234329,977.622077727765
91,1.28749999404,0.7843837141991,21.15649465511,1.804471254349,997.1893048502643
92,1.297499999404,0.7944316267967,21.14644674251,1.839619874954,1016.6131823229983
93,1.307500004768,0.804632127285,21.13624624202,1.874539613724,1035.9105748116206
94,1.317499995232,0.814771592617,21.12610677669,1.908810853958,1054.8495931766586
95,1.327999994159,0.8251437544823,21.11573461483,1.94556927681,1075.1630817084567
96,1.338499993086,0.8352774977684,21.10560087154,1.984303712845,1096.568557273898
97,1.349000006914,0.845382630825,21.09549573848,2.020886659622,1116.785073983715
98,1.359500005841,0.8556517958641,21.08522657344,2.05794262886,1137.2629929951347
99,1.369499996305,0.865760743618,21.07511762569,2.091870546341,1156.0122838837287
100,1.379500001669,0.8760642409325,21.06481412838,2.127492189407,1175.6975636580657
101,1.389500007033,0.8863562941551,21.05452207515,2.163121461868,1195.387059598816
102,1.399499997497,0.8963925242424,21.04448584507,2.200039148331,1215.7885605991742
103,1.409999996424,0.9067494273186,21.03412894199,2.238094568253,1236.8187973770357
104,1.420499995351,0.9170262217522,21.02385214756,2.276348352432,1257.9586544744607
105,1.430999994278,0.9274632334709,21.01341513584,2.313709497452,1278.605220132468
106,1.440999999642,0.937617957592,21.00326041172,2.349628686905,1298.4549303869794
107,1.451000005007,0.9479214549065,20.9929569144,2.385158777237,1318.0896161676717
108,1.46099999547,0.9580723643303,20.98280600498,2.420040369034,1337.3659278253322
109,1.471499994397,0.9682347178459,20.97264365146,2.455143213272,1356.764508301244
110,1.483500003815,0.9786354899406,20.96224287937,2.489795923233,1375.91433497424
111,1.497999995947,0.988664329052,20.95221404026,2.522785425186,1394.145037425489
112,1.518999993801,0.997585952282,20.94329241703,2.5519926548,1410.285575505656
113,1.619000002742,1.003719210625,20.93715915868,2.560398817062,1414.931000076593
114,1.719500005245,1.003134131432,20.93774423788,2.541304349899,1404.3789902338938
115,1.820000007749,1.00226521492,20.93861315439,2.52796459198,1397.0071554684143
116,1.920499995351,1.001582145691,20.93929622362,2.514470100403,1389.5498115830271
117,2.020500004292,1.00103533268,20.93984303663,2.503030061722,1383.22780218982
118,2.121000006795,1.000647425652,20.94023094366,2.491881370544,1377.0667976412658
119,2.221499994397,1.000443816185,20.94043455312,2.485795736313,1373.7037463575402
120,2.321500003338,1.00027012825,20.94060824106,2.479177713394,1370.0464857288794
121,2.422000005841,1.000178217888,20.94070015142,2.473934650421,1367.1490572945218
122,2.522499993443,1.000086069107,20.9407923002,2.468616485596,1364.2101259748129
123,2.622500002384,1.000074028969,20.94080434034,2.462680578232,1360.9298169514925
124,2.723000004888,1.00005710125,20.94082126806,2.455838441849,1357.148706442245
125,2.823500007391,1.000016450882,20.94086191843,2.451738595963,1354.8830441551897
126,2.923999994993,0.9999983906746,20.94087997863,2.448359251022,1353.0155460587566
127,3.024000003934,1.000039935112,20.9408384342,2.441904067993,1349.4482742267141
128,3.124500006437,0.9999599456787,20.94091842363,2.436219453812,1346.3068351764487
129,3.22499999404,1.00000333786,20.94087503145,2.432074308395,1344.0161394023157
130,3.32500000298,1.000001192093,20.94087717721,2.428881645203,1342.2518056223355
131,3.425500005484,1.000002980232,20.94087538908,2.424278020859,1339.7077446137043
132,3.525999993086,1.000018239021,20.94086013029,2.421921730042,1338.4056080481223
133,3.626000002027,1.000004172325,20.94087419698,2.418417692184,1336.4692019860327
134,3.72650000453,1.000031471252,20.94084689806,2.415589094162,1334.90605838457
135,3.827000007033,1.00000679493,20.94087157438,2.413530111313,1333.7682205437372
136,3.927499994636,1.000030636787,20.94084773252,2.410825490952,1332.2735896422091
137,4.027500003576,0.9999897480011,20.94088862131,2.405230283737,1329.181558788422
138,4.12800000608,1.000024199486,20.94085416982,2.404474258423,1328.7637630737493
139,4.228499993682,1.00003683567,20.94084153364,2.402374505997,1327.603395095044
140,4.328500002623,1.000020265579,20.94085810373,2.401336431503,1327.0297329873438
141,4.429000005126,0.9999804496765,20.94089791963,2.395587682724,1323.852851790221
142,4.529500007629,1.000009775162,20.94086859415,2.391573667526,1321.6346213721388
143,4.629999995232,0.9999896287918,20.94088874052,2.389189481735,1320.3170694489195
144,4.730000004172,0.9999943971634,20.94088397214,2.387134075165,1319.1812079361453
145,4.830500006676,0.9999853372574,20.94089303205,2.387297391891,1319.2714602425078
146,4.930999994278,1.000007510185,20.94087085912,2.381935834885,1316.3085494780153
147,5.031000003219,1.000019550323,20.94085881898,2.380779266357,1315.6694050396275
148,5.131500005722,1.00000846386,20.94086990545,2.377811908722,1314.0295799162534
149,5.231999993324,1.000021576881,20.94085679243,2.375613451004,1312.8146652877872
150,5.332000002265,1.000023961067,20.94085440824,2.373758554459,1311.7896098917427
151,5.432500004768,0.9999895095825,20.94088885973,2.372659921646,1311.1824819652431
152,5.533000007272,1.000019788742,20.94085858057,2.370753765106,1310.1290992025765
153,5.633499994874,1.000008821487,20.94086954782,2.369424819946,1309.3946957605208
154,5.733500003815,1.00002849102,20.94084987829,2.366252660751,1307.6416929266366
155,5.834000006318,1.000000596046,20.94087777326,2.363177776337,1305.9424462116215
156,5.93449999392,1.000015258789,20.94086311052,2.360118865967,1304.2520270940502
157,6.034500002861,1.000021934509,20.9408564348,2.358070135117,1303.119854726542
158,6.134499996901,1.000015258789,20.94086311052,2.358924865723,1303.5921970909756
159,6.234500005841,1.000043392181,20.94083497713,2.355797767639,1301.8640959881914
160,6.334499999881,0.9999841451645,20.94089422414,2.353185653687,1300.420586101455
161,6.43449999392,0.9999969601631,20.94088140914,2.352366924286,1299.9681387708167
162,6.534500002861,1.00002014637,20.94085822294,2.348809719086,1298.0023513014687
163,6.634499996901,1.00000679493,20.94087157438,2.346439361572,1296.6924411790797
164,6.734500005841,1.000012159348,20.94086620996,2.345104455948,1295.9547438574796
165,6.834499999881,1.000013232231,20.94086513708,2.344097137451,1295.3980781697524
166,6.93449999392,0.9999828338623,20.94089553545,2.342029333115,1294.2553653870398
167,7.034500002861,1.00000166893,20.94087670038,2.341288805008,1293.8461337595134
168,7.134499996901,0.9999976158142,20.94088075349,2.339931726456,1293.0961832049481
169,7.234500005841,0.9999858736992,20.94089249561,2.337492465973,1291.7481958321769
170,7.334499999881,1.000014424324,20.94086394498,2.338310480118,1292.2002478970928
171,7.43449999392,1.000007033348,20.94087133596,2.334702253342,1290.206264816548
172,7.534500002861,1.000013828278,20.94086454103,2.332040786743,1288.7354816043787
173,7.634499996901,1.000007867813,20.94087050149,2.330636501312,1287.9594435215467
174,7.734500005841,0.9999925494194,20.94088581989,2.330726385117,1288.0091152294274
175,7.834499999881,0.9999908208847,20.94088754842,2.327400445938,1286.17113029623
176,7.93449999392,1.000016212463,20.94086215684,2.32568192482,1285.2214388700581
177,8.034500002861,1.000025987625,20.94085238168,2.326421737671,1285.6302752318622
178,8.134499996901,0.9999980330467,20.94088033626,2.324634075165,1284.642374799883
179,8.234500005841,1.000026464462,20.94085190485,2.323249578476,1283.877272397978
180,8.334499999881,1.000050544739,20.94082782457,2.319671392441,1281.899890471684
181,8.43449999392,1.000017642975,20.94086072633,2.320796728134,1282.521774979249
182,8.534500002861,1.00001347065,20.94086489866,2.319296360016,1281.69263955412
183,8.634499996901,1.000029802322,20.94084856699,2.318670034409,1281.3465186640535
184,8.734500005841,0.9999934434891,20.94088492582,2.317289113998,1280.5833925896538
185,8.834499999881,0.9999970793724,20.94088128994,2.311309814453,1277.27910412155
186,8.93449999392,0.9999869465828,20.94089142272,2.311702728271,1277.4962366782993
187,9.034500002861,1.000020742416,20.94085762689,2.312185049057,1277.7627774326322
188,9.134499996901,1.000005364418,20.94087300489,2.309398889542,1276.2230862553586
189,9.234500005841,1.000027537346,20.94085083196,2.309916734695,1276.5092585326367
190,9.334499999881,0.9999995231628,20.94087884614,2.307762384415,1275.3187186152293
191,9.43449999392,1.000015735626,20.94086263368,2.310728549957,1276.957884962584
192,9.534500002861,1.000040173531,20.94083819578,2.304945468903,1273.7620310179827
193,9.634499996901,1.000059485435,20.94081888387,2.305684566498,1274.1704721140645
194,9.734500005841,1.000045061111,20.9408333082,2.304413795471,1273.4682169387693
195,9.834499999881,1.000046133995,20.94083223531,2.301124572754,1271.6505223056417
196,9.93449999392,1.000003576279,20.94087479303,2.301267385483,1271.7294436659085
197,10.03450000286,1.000000953674,20.94087741563,2.302939414978,1272.6534428295358
198,10.1344999969,1.000022053719,20.94085631559,2.29566693306,1268.6345141982995
199,10.23450000584,0.9999865293503,20.94089183996,2.295835971832,1268.727928629334
200,10.33449999988,1.000011324883,20.94086704443,2.296106815338,1268.8776025278905
201,10.43449999392,1.000005364418,20.94087300489,2.296134710312,1268.8930178855276
202,10.53450000286,1.000000357628,20.94087801168,2.292546749115,1266.9102339962067
203,10.6344999969,0.999985396862,20.94089297245,2.29184794426,1266.5240595277003
204,10.73450000584,1.000021576881,20.94085679243,2.291567087173,1266.3688519106918
205,10.83449999988,1.000017285347,20.94086108396,2.293907642365,1267.662292634255
206,10.93449999392,0.99998909235,20.94088927696,2.292125225067,1266.6772908160979
207,11.03450000286,0.9999961853027,20.940882184,2.286158561707,1263.3799853733572
208,11.1344999969,0.9999879002571,20.94089046905,2.286114215851,1263.3554789074267
209,11.23450000584,1.000040531158,20.94083783815,2.286421060562,1263.5250478397782
210,11.33449999988,1.000006198883,20.94087217042,2.287722826004,1264.2444311899187
211,11.43449999392,1.00001347065,20.94086489866,2.287465333939,1264.1021355824478
212,11.53450000286,1.000026583672,20.94085178564,2.281778335571,1260.9593789795908
213,11.6344999969,1.00001513958,20.94086322973,2.279498577118,1259.6995358308045
214,11.73450000584,0.9999861717224,20.94089219759,2.281279325485,1260.6836153620923
215,11.83449999988,0.9999971389771,20.94088123033,2.285688400269,1263.1201641340904
216,11.93449999392,1.000025749207,20.9408526201,2.27997803688,1259.9644955222486
217,12.03450000286,0.9999883770943,20.94088999221,2.274725437164,1257.061796880289
218,12.1344999969,0.9999892711639,20.94088909814,2.276379108429,1257.9756508944338
219,12.23450000584,0.9999848008156,20.94089356849,2.278147697449,1258.9530109112084
220,12.33449999988,0.9999834299088,20.9408949394,2.27756857872,1258.6329775488562
221,12.43449999392,0.999980866909,20.9408975024,2.274310827255,1256.8326746008713
222,12.53450000286,0.9999833703041,20.940894999,2.268152952194,1253.429701493578
223,12.6344999969,1.000016331673,20.94086203763,2.27064204216,1254.8052257015272
224,12.73450000584,1.000036597252,20.94084177206,2.274614810944,1257.0006624714397
225,12.83449999988,1.000038981438,20.94083938787,2.271216869354,1255.1228874700992
226,12.93449999392,0.9999932050705,20.94088516424,2.269101142883,1253.953691893398
227,13.03450000286,0.9999766349792,20.94090173433,2.267687797546,1253.1726471132608
228,13.1344999969,1.000016570091,20.94086179922,2.268375635147,1253.5527608432735
229,13.23450000584,1.000013232231,20.94086513708,2.268759012222,1253.7646231924205
230,13.33449999988,1.000018358231,20.94086001108,2.266414165497,1252.4688108761823
231,13.43449999392,1.00001180172,20.94086656759,2.263798475266,1251.0233246613877
232,13.53450000286,1.000006198883,20.94087217042,2.263721466064,1250.9807677337426
233,13.6344999969,1.000032901764,20.94084546754,2.260885238647,1249.4134079658663
234,13.73450000584,0.9999957084656,20.94088266084,2.262449979782,1250.2781172932778
235,13.83449999988,0.9999958872795,20.94088248203,2.260047197342,1248.9502884651515
236,13.93449999392,1.000053882599,20.94082448671,2.259378910065,1248.580978661193
237,14.03450000286,1.000008702278,20.94086966703,2.258555412292,1248.1258962264774
238,14.1344999969,1.000006318092,20.94087205122,2.259306669235,1248.541056837625
239,14.23450000584,0.9999727010727,20.94090566823,2.257717370987,1247.6627767257626
240,14.33449999988,1.000014185905,20.9408641834,2.25719165802,1247.3722565266457
241,14.43449999392,1.000021576881,20.94085679243,2.254952430725,1246.1348117603072
