,time,travel,position,force,stress
0,0.0,0.0,20.66132773888,-0.01157970074564,-8.358125229902548
1,0.0,0.0,20.66132522244,-0.01162339095026,-8.389660431852523
2,0.0,0.0,20.66133303438,-0.01196902338415,-8.639134855192552
3,0.0,0.0,20.66132747625,-0.01278679911047,-9.229398116799775
4,0.0,0.0,20.6613287652,-0.01285903993994,-9.28154090638349
5,0.0,0.0,20.67882248998,-0.01164383068681,-8.404413652294377
6,0.0,0.0,20.67881339282,-0.01130575314164,-8.160392280583814
7,0.007999999999811,1.26869417727e-05,20.67880070588,-0.01093963161111,-7.896129009127034
8,0.01099999999997,1.894170418382e-05,20.67879445112,-0.0110296048224,-7.961070874535902
9,0.01299999999992,1.67372636497e-05,20.67879665556,-0.01100653782487,-7.944421320435276
10,0.01400000000012,1.224456354976e-05,20.67880114826,-0.01102674379945,-7.959005813561788
11,0.114,2.711329216254e-06,20.67881068149,-0.01249584369361,-9.019389079100765
12,0.2139999999999,1.973800135602e-05,20.67879365482,-0.01325977779925,-9.57078993673837
13,0.3139999999999,4.469616396818e-05,20.67876869666,-0.01398678403348,-10.095536584522176
14,0.4140000000002,0.006784251891077,20.67202914093,-0.0123256444931,-8.896540806667861
15,0.4395,0.01701526902616,20.6617981238,0.004233479965478,3.0556882675117008
16,0.4515000000001,0.02708617225289,20.65172722057,0.01710162870586,12.343803825214838
17,0.46,0.03765669837594,20.64115669445,0.01167379040271,8.426038309342513
18,0.4670000000001,0.04798689857125,20.63082649425,0.005247933324426,3.7879116988620454
19,0.4735000000001,0.05830565467477,20.62050773815,0.0002621238236316,0.18919864958329843
20,0.48,0.06894102692604,20.6098723659,0.0006863151793368,0.4953762054895798
21,0.4865,0.07966795563698,20.59914543719,-0.001841875491664,-1.329449383483631
22,0.4929999999999,0.09013548493385,20.58867790789,-0.0005448485608213,-0.39326685574247194
23,0.5,0.1008471548557,20.57796623797,-0.005400063935667,-3.8977182239169053
24,0.5075000000002,0.1110323965549,20.56778099627,0.0009886000771075,0.7135627619623015
25,0.5160000000001,0.1214274466038,20.55738594622,0.01792585663497,12.938724229533445
26,0.5245,0.1317233145237,20.5470900783,0.02898847870529,20.92362666059433
27,0.5324999999998,0.1417445242405,20.53706886858,0.03787672147155,27.339081407311156
28,0.5405000000001,0.1522769033909,20.52653648943,0.04590093716979,33.130889084456186
29,0.5480000000002,0.1627215445042,20.51609184832,0.04948770627379,35.71978719162575
30,0.5549999999998,0.1727656424046,20.50604775042,0.0482872389257,34.853300513762065
31,0.5625,0.1833666861057,20.49544670672,0.04771551117301,34.44063249587801
32,0.5700000000002,0.1933688223362,20.48544457049,0.05157288536429,37.2248509534622
33,0.5785000000001,0.2037028372288,20.4751105556,0.05431946739554,39.20730948806908
34,0.5880000000002,0.2137335836887,20.46507980914,0.0604439638555,43.6279166787786
35,0.5994999999998,0.2237776815891,20.45503571124,0.07305344939232,52.72933143175213
36,0.6125000000002,0.2338923513889,20.44492104144,0.09370622038841,67.63631824614056
37,0.6244999999999,0.2441939413548,20.43461945147,0.1037455499172,74.88261720230999
38,0.6350000000002,0.2543734610081,20.42443993182,0.1081829965115,78.08552677232876
39,0.645,0.2647112905979,20.41410210223,0.1124025285244,81.13114753145588
40,0.6545000000001,0.2747210562229,20.4040923366,0.116277307272,83.92792844332874
41,0.6644999999999,0.2850817739964,20.39373161883,0.1221691071987,88.1805773414819
42,0.6750000000002,0.2955206930637,20.38329269976,0.1310020387173,94.55610892051769
43,0.6855,0.305648714304,20.37316467852,0.1406017243862,101.48507684039915
44,0.6959999999999,0.3157233297825,20.36309006304,0.1500678956509,108.31767524825159
45,0.7065000000002,0.3259716629982,20.35284172983,0.1598423421383,115.37278397594739
46,0.7170000000001,0.3363972306252,20.3424161622,0.1687363088131,121.79237018904946
47,0.7269999999999,0.3464642167091,20.33234917612,0.1778210103512,128.34962713373497
48,0.7370000000001,0.356687605381,20.32212578744,0.1888168752193,136.28634480869474
49,0.7469999999998,0.3671398758888,20.31167351694,0.1996563374996,144.11017248383257
50,0.7565,0.3772297501564,20.30158364267,0.2081192433834,150.2186228435979
51,0.7660000000001,0.3873997330666,20.29141365976,0.2168072164059,156.48952466663604
52,0.7755000000002,0.3975010514259,20.2813123414,0.2241943776608,161.82151210035153
53,0.7855,0.4078617691994,20.27095162362,0.2324570119381,167.78540819192898
54,0.7959999999998,0.4183292984962,20.26048409433,0.2423275411129,174.90986855066905
55,0.8065000000001,0.4284592270851,20.25035416574,0.256029933691,184.8001339066342
56,0.817,0.4386520981789,20.24016129465,0.2680004537106,193.4403490200121
57,0.8274999999999,0.4490910172462,20.22972237558,0.2802341878414,202.270549742864
58,0.8375000000001,0.45928388834,20.21952950448,0.2893169820309,208.82642998025756
59,0.8474999999999,0.4694424271584,20.20937096567,0.2989777028561,215.79945253427746
60,0.8575000000001,0.4794560074806,20.19935738534,0.3083351552486,222.55357862504147
61,0.8679999999999,0.4897308945656,20.18908249826,0.3211563527584,231.8078052011964
62,0.8784999999998,0.4999561905861,20.17885720224,0.3337105214596,240.86929275314898
63,0.8890000000001,0.5102348923683,20.16857850046,0.3462837636471,249.94454737823824
64,0.8995,0.5207024216652,20.15811097116,0.3587997853756,258.9785007838452
65,0.9095000000002,0.5308151841164,20.14799820871,0.3698852956295,266.9799237026846
66,0.9195,0.5410042405128,20.13780915231,0.3815773427486,275.41913954789146
67,0.9295000000002,0.5511131882668,20.12770020456,0.3922565877438,283.1273238085512
68,0.9400000000001,0.56159979105,20.11721360177,0.4054096639156,292.62109745755885
69,0.9504999999999,0.5719910264015,20.10682236642,0.4188763201237,302.34121039378687
70,0.9610000000002,0.5823822617531,20.09643113107,0.4316860735416,311.58717672597317
71,0.9715000000001,0.5928383469582,20.08597504587,0.4455677568913,321.60685256969754
72,0.9814999999999,0.6029091477394,20.07590424508,0.456866890192,329.76246670784104
73,0.9915000000001,0.6129799485207,20.0658334443,0.4684483110905,338.1218335288118
74,1.0015,0.6229858994484,20.05582749338,0.4806477129459,346.9272535199744
75,1.012,0.633449614048,20.04536377878,0.4948002398014,357.1424218024851
76,1.0225,0.6438828110695,20.03493058175,0.5067135691643,365.74135720741646
77,1.033,0.6543045639992,20.02450882883,0.5210835337639,376.1134701238876
78,1.043,0.6643181443214,20.0144952485,0.5339085459709,385.3704501146266
79,1.053,0.6744423508644,20.00437104196,0.5461651682854,394.2171713253436
80,1.063,0.6845512986183,19.99426209421,0.5574719309807,402.3782922927996
81,1.073,0.6946030259132,19.98421036691,0.5719868540764,412.8550349652684
82,1.083,0.7046318650246,19.9741815278,0.5859181284904,422.9105051990904
83,1.093,0.7146378159523,19.96417557687,0.6008297801018,433.67360299327873
84,1.1035,0.7251053452492,19.95370804758,0.6165539622307,445.0231781038986
85,1.1135,0.7351341843605,19.94367920846,0.6314617991447,455.7835224833586
86,1.1235,0.7451820969582,19.93363129587,0.6452481150627,465.73436296125504
87,1.1335,0.7552567124367,19.92355668039,0.6593281626701,475.8972163657309
88,1.1435,0.7653923630714,19.91342102975,0.6731373667717,485.8645773314203
89,1.1535,0.7755623459816,19.90325104684,0.6872784495354,496.0714853700346
90,1.1635,0.7856522202492,19.89316117258,0.70140427351,506.26737975009627
91,1.174,0.7961159348488,19.88269745798,0.717345893383,517.7738994946766
92,1.1845,0.8065147995949,19.87229859323,0.7339856028557,529.7842941168681
93,1.195,0.8169060349464,19.86190735788,0.7494274973869,540.9301165447329
94,1.2055,0.8273420333862,19.85147135944,0.7641081213951,551.5264606652706
95,1.2155,0.8373594284058,19.84145396442,0.7789930701256,562.27028455701
96,1.2255,0.8474225997925,19.83139079303,0.7938970923424,573.0278755218859
97,1.2355,0.8574743270874,19.82133906574,0.8090414404869,583.9589316085151
98,1.2455,0.8674955368042,19.81131785602,0.82595962286,596.1703254988056
99,1.2555,0.8775205612183,19.80129283161,0.8417906165123,607.5969962190775
100,1.2655,0.8875226974487,19.79129069538,0.8565878272057,618.2774915743014
101,1.2755,0.8975439071655,19.78126948566,0.8710722327232,628.7322069296648
102,1.2855,0.9075574874878,19.77125590534,0.8851980566978,638.9281013097265
103,1.296,0.9180517196655,19.76076167316,0.9003881812096,649.8921983720137
104,1.306,0.9280767440796,19.75073664874,0.916119992733,661.2472803118739
105,1.316,0.938178062439,19.74063533039,0.9318212866783,672.5803349347008
106,1.326,0.9483137130737,19.73049967975,0.9467329382896,683.343432728817
107,1.336,0.9584646224976,19.72034877033,0.9615187048912,694.0156678401443
108,1.346,0.9684972763062,19.71031611652,0.97679656744,705.0430934388747
109,1.3565,0.978892326355,19.69992106647,0.9935583472252,717.1415973292711
110,1.367,0.9892301559448,19.68958323688,1.010987758636,729.7219918018839
111,1.3775,0.9995756149292,19.67923777789,1.027856349945,741.8975913022209
112,1.388,1.009913444519,19.66889994831,1.045907497406,754.9267493380435
113,1.3985,1.020407676697,19.65840571613,1.062211513519,766.6948434724374
114,1.4085,1.030570030212,19.64824336261,1.077504634857,777.7332827297927
115,1.4185,1.040694236755,19.63811915607,1.092225551605,788.3587097923253
116,1.429,1.051173210144,19.62764018268,1.109136104584,800.5645968536643
117,1.4395,1.061560630798,19.61725276203,1.124814510345,811.8811309881931
118,1.45,1.071906089783,19.60690730304,1.140103816986,822.9168168311087
119,1.4605,1.082218050957,19.59659534187,1.156676769257,834.8790266975744
120,1.471,1.092697024345,19.58611636848,1.172595500946,846.3690259540731
121,1.481,1.102897524834,19.57591586799,1.188121318817,857.575423503797
122,1.491,1.113235354424,19.5655780384,1.203391551971,868.5973422730707
123,1.501,1.123535037041,19.55527835578,1.219184398651,879.9964788472859
124,1.511,1.133624911308,19.54518848152,1.235400676727,891.7012444452365
125,1.5215,1.143993258476,19.53482013435,1.252833843231,904.284349310795
126,1.532,1.154235720634,19.52457767219,1.270114421844,916.7573175908269
127,1.5425,1.164522051811,19.51429134101,1.288184642792,929.8002427002915
128,1.553,1.1750010252,19.50381236762,1.30460691452,941.6536926880896
129,1.563,1.185121417046,19.49369197578,1.320727825165,953.2896229207178
130,1.573,1.195268511772,19.48354488105,1.336753368378,964.8567177873015
131,1.583,1.205381274223,19.4734321186,1.352733135223,976.3907716777221
132,1.5935,1.215871691704,19.46294170112,1.368449687958,987.7348399595346
133,1.604,1.226205706596,19.45260768623,1.386516094208,1000.7750116538376
134,1.6145,1.236570239067,19.44224315376,1.402610301971,1012.3916679832226
135,1.625,1.246957659721,19.4318557331,1.419555187225,1024.6223357759623
136,1.6355,1.257367968559,19.42144542426,1.435527324677,1036.1508828382252
137,1.646,1.267839312553,19.41097408027,1.453032970428,1048.7863025810248
138,1.656,1.277948260307,19.40086513252,1.468707561493,1060.1000833018356
139,1.666,1.288106799126,19.3907065937,1.486335277557,1072.8236123132008
140,1.676,1.298234820366,19.38057857246,1.502589702606,1084.5559120577136
141,1.686,1.308286547661,19.37052684516,1.519458293915,1096.7315115580507
142,1.6965,1.31875026226,19.36006313056,1.536567211151,1109.080576179636
143,1.707,1.329040765762,19.34977262706,1.554171919823,1121.7874986596428
144,1.7175,1.339378595352,19.33943479747,1.570968031883,1133.9107832812954
145,1.7275,1.34938454628,19.32942884654,1.586051344872,1144.7977847343636
146,1.7375,1.35951256752,19.3193008253,1.601954817772,1156.2767703323818
147,1.7475,1.369663476944,19.30914991588,1.617354750633,1167.3923051991005
148,1.7575,1.379745721817,19.29906767101,1.634105086327,1179.4825488460333
149,1.768,1.390209436417,19.28860395641,1.651950240135,1192.3630224912868
150,1.7785,1.40057015419,19.27824323863,1.671294569969,1206.3255880871195
151,1.789,1.410961389542,19.26785200328,1.690097212791,1219.8971688050906
152,1.7995,1.421447992325,19.2573654005,1.708350539207,1233.0722578163209
153,1.8095,1.431556940079,19.24725645275,1.724822402,1244.961502194722
154,1.8195,1.441776514053,19.23703687877,1.740847945213,1256.5285970613056
155,1.8295,1.451988458633,19.22682493419,1.756007552147,1267.4706668067763
156,1.8395,1.462055444717,19.21675794811,1.771094679832,1278.3604216735625
157,1.85,1.472488641739,19.20632475109,1.78956925869,1291.6952087338425
158,1.8605,1.482864618301,19.19594877452,1.80710542202,1304.3526557943246
159,1.871,1.493240594864,19.18557279796,1.825076460838,1317.3239921225831
160,1.8815,1.50372338295,19.17509000987,1.843219161034,1330.4192321100104
161,1.8915,1.513771295547,19.16504209728,1.859927535057,1342.4791881952199
162,1.9015,1.523788690567,19.15502470226,1.875159621239,1353.473572818653
163,1.912,1.534252405167,19.14456098766,1.89272248745,1366.1502937816567
164,1.9225,1.544616937637,19.13419645519,1.909785628319,1378.4663174278005
165,1.933,1.55488038063,19.12393301219,1.928084731102,1391.674447414472
166,1.9435,1.56530213356,19.11351125926,1.946280837059,1404.80823520622
167,1.9535,1.575399279594,19.10341411323,1.962563276291,1416.5607553394002
168,1.9635,1.585527300835,19.09328609199,1.978779554367,1428.2655209373509
169,1.9735,1.595594286919,19.08321910591,1.995087385178,1440.0363684869062
170,1.984,1.606058001518,19.07275539131,2.012558698654,1452.647007498305
171,1.9945,1.616426348686,19.06238704414,2.029301404953,1464.7317443156367
172,2.005,1.626752734184,19.05206065864,2.047367811203,1477.7719160099398
173,2.0155,1.637143969536,19.04166942329,2.065430402756,1490.8093342898035
174,2.0255,1.647153735161,19.03165965766,2.082215070724,1502.9243586674152
175,2.0355,1.65717113018,19.02164226264,2.098824262619,1514.912725972862
176,2.046,1.667539477348,19.01127391548,2.118103742599,1528.8284835196116
177,2.0565,1.67788875103,19.00092464179,2.136799573898,1542.3229686282193
178,2.067,1.688287615776,18.99052577705,2.154759168625,1555.286044713159
179,2.0775,1.698762774467,18.98005061836,2.172787427902,1568.2986822608998
180,2.0875,1.708898425102,18.96991496772,2.189995527267,1580.7193356629691
181,2.0975,1.719129443169,18.95968394966,2.206211805344,1592.4241012616417
182,2.1075,1.729261279106,18.94955211372,2.222740888596,1604.3546468595246
183,2.118,1.739736437798,18.93907695503,2.241486310959,1617.8849263580137
184,2.1285,1.75011241436,18.92870097846,2.25936961174,1630.792934149829
185,2.139,1.760465502739,18.91834789009,2.277409315109,1643.8138319416107
186,2.1495,1.770883440971,18.90792995185,2.295746564865,1657.0494960748447
187,2.1595,1.780897021294,18.89791637153,2.312367200851,1669.0461236236108
188,2.1695,1.790937304497,18.88787608833,2.32891535759,1680.990436295136
189,2.1795,1.800992846489,18.87782054634,2.34579539299,1693.1742960387921
190,2.1895,1.811101794243,18.86771159858,2.36288523674,1705.5095935874572
191,2.1995,1.821264147758,18.85754924507,2.379490613937,1717.4952074777427
192,2.2095,1.831419229507,18.84739416332,2.396790981293,1729.9824590968497
193,2.2195,1.841520547867,18.83729284496,2.414147853851,1742.510495669284
194,2.2295,1.851537942886,18.82727544994,2.431180477142,1754.8044919984668
195,2.24,1.861902475357,18.81691091747,2.449021816254,1767.6822122300023
196,2.2505,1.872221231461,18.80659216136,2.467870235443,1781.286833923415
197,2.261,1.882715463638,18.79609792919,2.485589504242,1794.0764448863847
198,2.271,1.892828226089,18.78598516673,2.501737117767,1805.7316490208123
199,2.281,1.902921915054,18.77589147777,2.51878118515,1818.0339055940358
200,2.2915,1.91340470314,18.76540868968,2.537271022797,1831.379706312796
201,2.302,1.923732995987,18.75508039684,2.554833889008,1844.0564272757997
202,2.3125,1.933889627457,18.74492376537,2.573655605316,1857.641775066691
203,2.323,1.944004297256,18.73480909557,2.592114925385,1870.9655484684906
204,2.3335,1.954321146011,18.72449224681,2.610379695892,1884.14889772304
205,2.3435,1.964323282242,18.71449011058,2.628308773041,1897.0899464910185
206,2.3535,1.974382638931,18.70443075389,2.645200252533,1909.2820664787153
207,2.3635,1.984384775162,18.69442861766,2.663445949554,1922.4516486603445
208,2.3735,1.994386911392,18.68442648143,2.682351589203,1936.097571573961
209,2.384,2.004884958267,18.67392843456,2.700658321381,1949.3112083902338
210,2.394,2.014959573746,18.66385381908,2.717568874359,1961.517095450851
211,2.404,2.025121927261,18.65369146556,2.735539913177,1974.4884317791098
212,2.414,2.035307168961,18.64350622386,2.752561092377,1986.7741678649734
213,2.424,2.045358896255,18.63345449657,2.769376277924,1998.9112195602681
214,2.4345,2.055776834488,18.62303655834,2.79026556015,2013.9889180813998
215,2.445,2.066160440445,18.61265295238,2.808495998383,2027.1474866052704
216,2.4555,2.076600313187,18.60221307964,2.827003479004,2040.506021866085
217,2.4655,2.086629152298,18.59218424053,2.844318389893,2053.0037708782393
218,2.4755,2.096757173538,18.58205621929,2.861877441406,2065.6777384260813
219,2.4855,2.106866121292,18.57194727153,2.879123687744,2078.1259259747126
220,2.4955,2.116906404495,18.56190698833,2.897541046143,2091.41941181551
221,2.5055,2.12691617012,18.5518972227,2.915481567383,2104.368720826808
222,2.516,2.137414216995,18.54139917583,2.934745788574,2118.2734647150764
223,2.526,2.147469758987,18.53134363384,2.95291519165,2131.3879786043035
224,2.536,2.15759396553,18.52121942729,2.970310211182,2143.9435493240217
225,2.546,2.167664766312,18.51114862651,2.988048553467,2156.7469273599113
226,2.5565,2.17807507515,18.50073831767,3.007747650146,2170.965560515957
227,2.567,2.188390016556,18.49042337627,3.026653289795,2184.6114834295736
228,2.5775,2.198668718338,18.48014467449,3.044727325439,2197.6571619527563
229,2.588,2.208977937698,18.46983545513,3.063552856445,2211.2452631588085
230,2.5985,2.219422578812,18.45939081401,3.082454681396,2224.888432657264
231,2.6085,2.229489564896,18.44932382793,3.100116729736,2237.6367424007512
232,2.6185,2.239606142044,18.43920725078,3.118125915527,2250.6356128755724
233,2.6285,2.249734163284,18.42907922954,3.135723114014,2263.3371145706983
234,2.6385,2.259736299515,18.41907709331,3.153114318848,2275.889931875255
235,2.649,2.270104646683,18.40870874614,3.172317504883,2289.7506211296018
236,2.6595,2.280469179153,18.39834421367,3.191539764404,2303.625077456869
237,2.67,2.29089474678,18.38791864604,3.209457397461,2316.557865980807
238,2.68,2.300919771194,18.37789362163,3.227508544922,2329.587024016629
239,2.69,2.31104016304,18.36777322978,3.246463775635,2343.2687413201274
240,2.7,2.32121014595,18.35760324687,3.264492034912,2356.281378867868
241,2.71,2.331349372864,18.34746401996,3.283138275146,2369.740069585873
242,2.72,2.341446876526,18.3373665163,3.301872253418,2383.262088841043
243,2.7305,2.351941108704,18.32687228412,3.320728302002,2396.8722173640567
244,2.741,2.362343788147,18.31646960468,3.338417053223,2409.6398010100656
245,2.7515,2.372742652893,18.30607073993,3.356761932373,2422.8809719721785
246,2.762,2.383217811584,18.29559558124,3.374729156494,2435.8495548859973
247,2.772,2.393242835999,18.28557055683,3.392944335938,2448.9971097513876
248,2.782,2.403359413147,18.27545397968,3.411670684814,2462.5136221762345
249,2.792,2.413578987122,18.2652344057,3.431167602539,2476.5863243575936
250,2.802,2.423836708069,18.25497668476,3.449245452881,2489.6347562959377
251,2.812,2.434048652649,18.24476474018,3.467197418213,2502.592325551276
252,2.822,2.444207191467,18.23460620136,3.485328674316,2515.6793052939406
253,2.832,2.454297065735,18.22451632709,3.503028869629,2528.45514918399
254,2.8425,2.464726448059,18.21408694477,3.522483825684,2542.497563804348
255,2.853,2.475014686584,18.20379870624,3.54264831543,2557.0521135458525
256,2.8635,2.485270500183,18.19354289264,3.563312530518,2571.9673606042165
257,2.874,2.495596885681,18.18321650714,3.583347320557,2586.428294248276
258,2.8845,2.506087303162,18.17272608966,3.602046966553,2599.9255327713236
259,2.8945,2.516188621521,18.1626247713,3.619911193848,2612.819773490219
260,2.9045,2.526354789734,18.15245860309,3.638847351074,2626.487723720075
261,2.9145,2.536437034607,18.14237635822,3.657497406006,2639.9491678532413
