,time,travel,position,force,stress
0,0.0,0.0,29.40365144248,-0.03834071010351,-21.18789421745483
1,0.0,0.0,29.40364964316,-0.03831925243139,-21.176036250145305
2,0.0,0.0,29.40363751222,-0.03954114764929,-21.85128161080202
3,0.0,0.0,29.40363106275,-0.03986728191376,-22.03151036185077
4,0.0,0.0,29.40363308931,-0.0398463010788,-22.019915904926883
5,0.0,0.0,29.40365037804,-0.0407540909946,-22.521579975720442
6,0.0,0.0,29.40364018788,-0.04065341874957,-22.46594634575974
7,0.008000001311302,-3.619119524956e-06,29.403643807,-0.04066333174706,-22.471424479618737
8,0.01099999248981,-3.762543201447e-07,29.40364056414,-0.0409639775753,-22.63756777713385
9,0.01299999654293,2.067536115646e-06,29.40363812035,-0.0409087985754,-22.6070746848111
10,0.01399999856949,2.065673470497e-06,29.40363812221,-0.04076002538204,-22.52485944480134
11,0.1145000010729,-1.696543768048e-05,29.40365715332,-0.0414157025516,-22.88720063441237
12,0.2150000035763,-2.517112443456e-05,29.40366535901,-0.03910997137427,-21.613004404158325
13,0.3154999911785,-1.079055891751e-05,29.40365097844,-0.0397646650672,-21.974802103605885
14,0.4155000001192,-1.643194264034e-05,29.40365661983,-0.04209088161588,-23.260318987024604
15,0.5160000026226,0.0005414671031758,29.40309872078,-0.04054548963904,-22.406302417133485
16,0.5764999985695,0.01065220311284,29.39298798477,-0.03820563480258,-21.1132487249804
17,0.597000002861,0.020822186023,29.38281800186,-0.01706458441913,-9.430253340671802
18,0.6075000017881,0.03111805394292,29.37252213394,-0.006898653693497,-3.8123431805528076
19,0.6149999946356,0.04134907200933,29.36229111588,-0.01801849715412,-9.957405865157801
20,0.6215000003576,0.05142750218511,29.3522126857,-0.02412201277912,-13.330338788620889
21,0.6279999911785,0.06218494847417,29.34145523941,-0.02817894332111,-15.57228514118405
22,0.6340000033379,0.07255710661411,29.33108308127,-0.0342557542026,-18.930460453766518
23,0.640000000596,0.08300937712193,29.32063081076,-0.03791690990329,-20.95369318707862
24,0.6459999978542,0.09328617155552,29.31035401633,-0.04554248973727,-25.167751258327897
25,0.6525000035763,0.1038223654032,29.29981782248,-0.05045757815242,-27.883933956261345
26,0.659500002861,0.1139999777079,29.28964021018,-0.05242250487208,-28.969794373786456
27,0.6674999892712,0.1243721395731,29.27926804831,-0.03913972899318,-21.629449099103365
28,0.6759999990463,0.1349808126688,29.26865937522,-0.03220270201564,-17.795900023279334
29,0.6840000003576,0.1450783163309,29.25856187155,-0.02922533266246,-16.150542210887263
30,0.6920000016689,0.1554581075907,29.24818208029,-0.02708981744945,-14.97041095325364
31,0.6994999945164,0.1655060201883,29.2381341677,-0.0211283992976,-11.67600412441795
32,0.707000002265,0.1761223226786,29.22751786521,-0.02107623033226,-11.647174441397635
33,0.7140000015497,0.1863838583231,29.21725632956,-0.02809718064964,-15.527101344917213
34,0.7214999943972,0.1970688253641,29.20657136252,-0.03146054968238,-17.385770813676857
35,0.7294999957085,0.2076813131571,29.19595887473,-0.03372019156814,-18.634497118316425
36,0.7379999905825,0.2177635580301,29.18587662985,-0.03289788588881,-18.180073459990357
37,0.7479999959469,0.2278878092766,29.17575237861,-0.03391036763787,-18.73959247093906
38,0.7609999924898,0.2379128336906,29.16572735419,-0.01902947388589,-10.51609317144976
39,0.7749999910593,0.2480618357658,29.15557835212,-0.004878853913397,-2.6961587393762865
40,0.7870000004768,0.2584530711174,29.14518711677,-0.0003636828041635,-0.2009788750004957
41,0.7969999909401,0.2684895396233,29.13515064826,5.271524423733e-05,0.029131568391207015
42,0.8065000027418,0.2787587046623,29.12488148322,-0.001432394143194,-0.791571556754185
43,0.8159999996424,0.288993537426,29.11464665046,-0.002624725457281,-1.4504792735604395
44,0.8259999901056,0.2992817759514,29.10435841193,0.0009420165442862,0.5205784357551878
45,0.8365000039339,0.3094956278801,29.09414456,0.005629325751215,3.110885484654043
46,0.8474999964237,0.3196560740471,29.08398411384,0.009737755171955,5.381291216094818
47,0.8589999973774,0.3299977183342,29.07364246955,0.01507356297225,8.329972420279686
48,0.8699999898672,0.3400303721428,29.06360981574,0.02105119265616,11.633338087526633
49,0.8809999972582,0.3504711985588,29.05316898933,0.02593209780753,14.330630384760074
50,0.8914999961853,0.3607899546623,29.04285023322,0.03094174899161,17.09907048584514
51,0.9015000015497,0.3709370493889,29.0327031385,0.03393485769629,18.75312619959931
52,0.911499992013,0.3812634348869,29.022376753,0.03719785436988,20.55632776173216
53,0.9214999973774,0.3917462229729,29.01189396491,0.0434768460691,24.026232506745504
54,0.930999994278,0.4020459055901,29.00159428229,0.04708602651954,26.020742608127996
55,0.9399999976158,0.4120938181877,28.9915463697,0.04725873097777,26.116182775563114
56,0.9494999945164,0.422538459301,28.98110172858,0.0524686537683,28.995297238201896
57,0.9589999914169,0.4327084422112,28.97093174567,0.05698048695922,31.488632497719248
58,0.9689999967813,0.4430577158928,28.96058247199,0.06058394536376,33.47998047448514
59,0.9794999957085,0.4533345103264,28.95030567756,0.06691109389067,36.97649770967379
60,0.9905000030994,0.4637657999992,28.93987438789,0.07516800612211,41.53944353019325
61,1.001000002027,0.4739979207516,28.92964226713,0.08064346015453,44.565296220929696
62,1.01099999249,0.4840954244137,28.91954476347,0.08368949592113,46.24860055804462
63,1.020999997854,0.4943149983883,28.9093251895,0.086739346385,47.934012978239146
64,1.031000003219,0.5044697523117,28.89917043557,0.08991841971874,49.690836712670915
65,1.041500002146,0.5148800611496,28.88876012674,0.09552602469921,52.78971883610332
66,1.052000001073,0.5250595808029,28.87858060708,0.1019537895918,56.34183882113195
67,1.0625,0.5352162122726,28.86842397561,0.1084454506636,59.92926919770903
68,1.072999998927,0.5456112623215,28.85802892556,0.1143277138472,63.17993330270004
69,1.08299998939,0.5556706190109,28.84796956887,0.1181967705488,65.31805656368081
70,1.092999994755,0.5657032728195,28.83793691507,0.1213200539351,67.04404958314761
71,1.103499993682,0.576136469841,28.82750371804,0.1274159401655,70.41276634041839
72,1.113999992609,0.5864971876144,28.81714300027,0.1321938484907,73.05314039456943
73,1.124499991536,0.596831202507,28.80680898538,0.1368954628706,75.65135278718408
74,1.134999990463,0.6070927381516,28.79654744973,0.1429541558027,78.9995157344745
75,1.14549998939,0.6173332929611,28.78630689492,0.1502850502729,83.05072438800705
76,1.156000003219,0.6276634931564,28.77597669473,0.1569054573774,86.70930256843023
77,1.166500002146,0.6381233930588,28.76551679483,0.1621287316084,89.59579532186137
78,1.176499992609,0.6481827497482,28.75545743814,0.1678536385298,92.75950099992323
79,1.186499997973,0.6582916975021,28.74534849038,0.1725876778364,95.37563209866184
80,1.196500003338,0.6683930158615,28.73524717202,0.1778328865767,98.27424632979918
81,1.206499993801,0.678452372551,28.72518781533,0.1818993538618,100.52146289002539
82,1.216999992728,0.6888512372971,28.71478895059,0.1884015053511,104.11469049507548
83,1.227499991655,0.6991242170334,28.70451597085,0.1957962960005,108.20120954015096
84,1.237999990582,0.7094029188156,28.69423726907,0.2031624764204,112.27191796214338
85,1.24849998951,0.7198311090469,28.68380907884,0.2094956487417,115.77176407460057
86,1.258499994874,0.7298790216446,28.67376116624,0.2155905812979,119.13995381116636
87,1.268500000238,0.739995598793,28.66364458909,0.2208281606436,122.0343518761114
88,1.278499990702,0.7501808404922,28.65345934739,0.2271872609854,125.54852636574623
89,1.288499996066,0.7604156732559,28.64322451463,0.2322856038809,128.36597939837216
90,1.298500001431,0.7705513238907,28.63308886399,0.2389098256826,132.02666566183626
91,1.308499991894,0.7805610895157,28.62307909837,0.2456465810537,135.7495403761121
92,1.318499997258,0.7905632257462,28.61307696214,0.2532969415188,139.97729275269361
93,1.328999996185,0.8010574579239,28.60258272996,0.2602473199368,143.81822011930447
94,1.339499995112,0.8115059137344,28.59213427415,0.2693949639797,148.87340333830676
95,1.34999999404,0.8219658136368,28.58167437425,0.2757941186428,152.40971270025787
96,1.359999999404,0.8319832086563,28.57165697923,0.283106893301,156.45090795918034
97,1.369999989867,0.8420120477676,28.56162814012,0.2897406518459,160.1168644303572
98,1.379999995232,0.8520370721817,28.5516031157,0.2965298593044,163.86872528694278
99,1.390000000596,0.8620811700821,28.5415590178,0.3023844659328,167.10410578961094
100,1.399999991059,0.8721290826797,28.53151110521,0.3089409768581,170.7273735784912
101,1.410499989986,0.8825393915176,28.52110079637,0.3151808679104,174.1756704719927
102,1.421000003815,0.8928543329239,28.51078585496,0.3220206201077,177.9554634293675
103,1.431500002742,0.9031769037247,28.50046328416,0.3296576440334,182.17584574980577
104,1.442000001669,0.913621544838,28.49001864305,0.3367663323879,186.10425856410603
105,1.451999992132,0.9236694574356,28.47997073045,0.3436852395535,189.92779424535317
106,1.461999997497,0.9337402582169,28.46989992967,0.3510514199734,193.9985026673456
107,1.472000002861,0.943795800209,28.45984438768,0.3581238687038,197.90688869237044
108,1.482500001788,0.9542862176895,28.4493539702,0.3646851480007,201.53279158510708
109,1.493000000715,0.9646888971329,28.43895129075,0.3713179528713,205.19822103552372
110,1.503499999642,0.9750148653984,28.42862532249,0.3788041770458,209.335268196863
111,1.513999998569,0.9853870272636,28.41825316062,0.3858651816845,213.23732997270992
112,1.524499997497,0.9958049654961,28.40783522239,0.3924627006054,216.88325965466666
113,1.534999996424,1.006131291389,28.3975088965,0.3991574943066,220.5829454551058
114,1.545499995351,1.016381382942,28.38725880494,0.4081449210644,225.54958918489825
115,1.555999994278,1.02683365345,28.37680653443,0.4163560569286,230.08723800846275
116,1.565999999642,1.036999821663,28.36664036622,0.4227056205273,233.59614229044007
117,1.575999990106,1.047330021858,28.35631016603,0.4293260276318,237.25472047086325
118,1.58599999547,1.057759404182,28.3458807837,0.4347991645336,240.2792926657943
119,1.596000000834,1.06810104847,28.33553913942,0.4409179389477,243.66065792158673
120,1.605999991298,1.078206181526,28.32543400636,0.4474696815014,247.28129060661058
121,1.616499990225,1.088658452034,28.31498173585,0.4572791755199,252.70222623950872
122,1.627000004053,1.099103093147,28.30453709474,0.4651088416576,257.0290667553913
123,1.636999994516,1.109131932259,28.29450825563,0.4736613929272,261.75538901443196
124,1.646999999881,1.119271397591,28.28436879029,0.4803619086742,265.45823693943237
125,1.656999990344,1.129429936409,28.27421025148,0.4866761863232,268.9476414529498
126,1.666999995708,1.139538884163,28.26410130372,0.4923219382763,272.06760440713936
127,1.677000001073,1.149544835091,28.25409535279,0.4995870292187,276.0824486276085
128,1.686999991536,1.159558415413,28.24408177247,0.5073575973511,280.37663032519123
129,1.696999996901,1.16957962513,28.23406056276,0.5139684677124,284.02993829790165
130,1.707000002265,1.179650425911,28.22398976197,0.5209474563599,287.88667628759555
131,1.716999992728,1.189725041389,28.2139151465,0.5276918411255,291.61376716800845
132,1.726999998093,1.199761509895,28.20387867799,0.5351324081421,295.7255832100168
133,1.73749999702,1.210236668587,28.1934035193,0.54185962677,299.44318771657987
134,1.747500002384,1.220245718956,28.18339446893,0.5489676594734,303.3712382040971
135,1.758000001311,1.230736136436,28.17290405145,0.5568221211433,307.71178125996653
136,1.768500000238,1.241199851036,28.16244033685,0.5623295903206,310.7553262026525
137,1.778999999166,1.251591086388,28.1520491015,0.5685961842537,314.2183796776613
138,1.789499998093,1.261873602867,28.14176658502,0.5761645436287,318.40081650275556
139,1.79999999702,1.272091269493,28.13154891839,0.5842497944832,322.8688985848099
140,1.810499995947,1.282389044762,28.12125114312,0.5909808278084,326.5886111744691
141,1.820999994874,1.292871832848,28.11076835504,0.5991480946541,331.10201704267644
142,1.831000000238,1.303015112877,28.10062507501,0.6052287220955,334.4623014676731
143,1.840999990702,1.31313931942,28.09050086847,0.6102975010872,337.26341685645576
144,1.850999996066,1.323149085045,28.08049110284,0.6169150471687,340.920413974543
145,1.861499994993,1.333462119102,28.07017806878,0.6264956593513,346.21486462283195
146,1.87199999392,1.343704581261,28.05993560662,0.6355155110359,351.1994270588036
147,1.882499992847,1.35412633419,28.04951385369,0.6431677937508,355.4282417116266
148,1.892499998212,1.364273428917,28.03936675897,0.6515086293221,360.03756535985264
149,1.902500003576,1.374542593956,28.02909759393,0.6578114628792,363.5206456240816
150,1.91249999404,1.384788870811,28.01885131707,0.6636698842049,366.758134209846
151,1.922499999404,1.394882559776,28.00875762811,0.6723521351814,371.55613129343766
152,1.932999998331,1.40535390377,27.99828628411,0.6814482808113,376.5828553909458
153,1.943000003695,1.415401816368,27.98823837152,0.6892340779305,380.8854529514711
154,1.952999994159,1.425594687462,27.97804550042,0.6964820027351,384.8908107980352
155,1.962999999523,1.435860037804,27.96778015008,0.7022269368172,388.0655839122829
156,1.972999989986,1.446014761925,27.95762542596,0.7073405385017,390.89146927718286
157,1.983500003815,1.456440329552,27.94719985833,0.7157710194588,395.5503328777543
158,1.994000002742,1.466688513756,27.93695167413,0.7239401936531,400.0647927874821
159,2.004500001669,1.477019548416,27.92662063947,0.7317559123039,404.38392562460126
160,2.014499992132,1.4870865345,27.91655365338,0.7387272715569,408.2364474481581
161,2.024499997497,1.497317552567,27.90632263532,0.743321120739,410.7751064938174
162,2.034500002861,1.507464647293,27.89617554059,0.7486330866814,413.7106121787784
163,2.045000001788,1.51793217659,27.88570801129,0.7556378245354,417.58157972921936
164,2.055500000715,1.528180360794,27.87545982709,0.7651917338371,422.8612737959458
165,2.065999999642,1.538348436356,27.86529175153,0.77513474226,428.3559923366016
166,2.076499998569,1.548690080643,27.85495010724,0.7833382487297,432.88942499402907
167,2.086500003934,1.558726549149,27.84491363874,0.7899262309074,436.530084468273
168,2.096499994397,1.568778276443,27.83486191144,0.7961766123772,439.98417859024755
169,2.106499999762,1.578833818436,27.82480636945,0.8024079203606,443.4277322967965
170,2.116499990225,1.588874101639,27.81476608625,0.8087498545647,446.9324204125815
171,2.127000004053,1.599360704422,27.80427948346,0.81615036726,451.0221015822736
172,2.13750000298,1.609797716141,27.79384247174,0.8251320719719,455.98558318744944
173,2.148000001907,1.620291948318,27.78334823957,0.8341767191887,460.983848163408
174,2.157999992371,1.63032078743,27.77331940046,0.841649711132,465.11358291154033
175,2.167999997735,1.640467882156,27.76317230573,0.8493153452873,469.34977585511695
176,2.178000003099,1.650763750076,27.75287643781,0.8568302989006,473.50269951714125
177,2.187999993563,1.661109209061,27.74253097882,0.8627735972404,476.7870929513392
178,2.197999998927,1.671351671219,27.73228851667,0.8683192133904,479.85171872482096
179,2.20799998939,1.681414842606,27.72222534528,0.8748518824577,483.4618109944193
180,2.218500003219,1.691863298416,27.71177688947,0.8829600214958,487.9425415749401
181,2.229000002146,1.702262163162,27.70137802472,0.8907420039177,492.2430310523693
182,2.238999992609,1.712264299393,27.69137588849,0.898573577404,496.57092560977236
183,2.248999997973,1.722405672073,27.68123451581,0.9053508043289,500.31616576794363
184,2.259000003338,1.732651948929,27.67098823896,0.9123660326004,504.1929305468576
185,2.268999993801,1.742753267288,27.6608869206,0.9194422960281,508.10342465497865
186,2.279499992728,1.753175020218,27.65046516767,0.9285117387772,513.1153921709794
187,2.289999991655,1.763612031937,27.64002815595,0.936143040657,517.3326123668011
188,2.300499990582,1.774110078812,27.62953010907,0.9435282945633,521.4138612042191
189,2.31099998951,1.784569978714,27.61907020917,0.9505225419998,525.279031526187
190,2.321500003338,1.794984102249,27.60865608564,0.9589186906815,529.9189223790588
191,2.332000002265,1.805367708206,27.59827247968,0.9664336442947,534.0718460410278
192,2.342500001192,1.815758943558,27.58788124433,0.9770709276199,539.9502357017034
193,2.352499991655,1.825787782669,27.57785240522,0.9859553575516,544.8599611884522
194,2.36249999702,1.83602643013,27.56761375775,0.9935542345047,549.0592626781499
195,2.372500002384,1.846444368362,27.55719581952,0.9997206926346,552.4669789723956
196,2.382499992847,1.856827974319,27.54681221357,1.005979657173,555.9258162811569
197,2.392499998212,1.86691403389,27.536726154,1.010983586311,558.691094257526
198,2.402999997139,1.877185106277,27.52645508161,1.019848942757,563.5902793292361
199,2.413499996066,1.887326478958,27.51631370893,1.028885960579,568.5843281388917
200,2.423999994993,1.897572755814,27.50606743207,1.037139058113,573.1451658762377
201,2.43449999392,1.907979249954,27.49566093793,1.045014500618,577.4973033891084
202,2.444499999285,1.918023347855,27.48561684003,1.052819371223,581.8104413647278
203,2.454499989748,1.928078889847,27.47556129804,1.058658719063,585.0373895354534
204,2.465000003576,1.938538789749,27.46510139814,1.066312909126,589.2672582295205
205,2.475500002503,1.948884248734,27.45475593915,1.075954556465,594.5954382071269
206,2.486000001431,1.959347963333,27.44429222455,1.084118008614,599.1067359925697
207,2.495999991894,1.969477891922,27.43416229596,1.090830683708,602.8163034320834
208,2.505999997258,1.979647874832,27.42399231305,1.097573161125,606.5423402709758
209,2.516000002623,1.989691972733,27.41394821515,1.103964686394,610.074433467011
210,2.52650000155,2.00004696846,27.40359321942,1.11193549633,614.4792730564568
211,2.537000000477,2.010279893875,27.39336029401,1.120631098747,619.2846484308575
212,2.547499999404,2.020524263382,27.3831159245,1.129914164543,624.4146685991932
213,2.557999998331,2.030942201614,27.37269798627,1.139071345329,629.475122025853
214,2.568000003695,2.041123628616,27.36251655927,1.146284937859,633.4615071251595
215,2.577999994159,2.051419496536,27.35222069135,1.151732325554,636.4718497591776
216,2.587999999523,2.061562776566,27.34207741132,1.157858729362,639.8574311807755
217,2.59849999845,2.071938753128,27.33170143476,1.165736079216,644.2106227353878
218,2.608999997377,2.082104921341,27.32153526654,1.174664378166,649.1445911773832
219,2.619499996305,2.092253923416,27.31138626447,1.185047984123,654.8827933134074
220,2.629999995232,2.102608919144,27.30103126874,1.193364024162,659.4784144215914
221,2.640000000596,2.11275601387,27.29088417401,1.200745463371,663.5575551759132
222,2.649999991059,2.123040437698,27.28059975019,1.207413554192,667.2424843951766
223,2.659999996424,2.133260011673,27.27038017621,1.212550997734,670.0815452790823
224,2.670499995351,2.143746614456,27.25989357343,1.218763232231,673.5145585702057
225,2.680999994278,2.154010057449,27.24963013044,1.228490710258,678.890170416785
226,2.691499993205,2.164252519608,27.23938766828,1.237609744072,683.9295430130359
227,2.701999992132,2.174689531326,27.22895065656,1.246316790581,688.7412426367802
228,2.711999997497,2.184832811356,27.21880737653,1.254815936089,693.4380517328062
229,2.722000002861,2.195094347,27.20854584088,1.2625426054,697.7079740053134
230,2.731999993324,2.20530629158,27.1983338963,1.267810702324,700.6192367349726
231,2.741999998689,2.21536564827,27.18827453962,1.274848818779,704.5086500122977
232,2.752499997616,2.225751399994,27.17788878789,1.283877491951,709.4980873903706
233,2.762999996543,2.236093044281,27.1675471436,1.291421055794,713.6668216755885
234,2.77349999547,2.246495723724,27.15714446416,1.300484776497,718.675627066862
235,2.783500000834,2.256520748138,27.14711943975,1.308587193489,723.1531955226558
236,2.793499991298,2.266583919525,27.13705626836,1.315604329109,727.0310143430349
237,2.803499996662,2.276628017426,27.12701217046,1.322678685188,730.9404544095802
238,2.813999995589,2.287106990814,27.11653319707,1.330994725227,735.5360755177642
239,2.824499994516,2.297509670258,27.10613051763,1.339394688606,740.1780744537319
