,time,travel,position,force,stress
0,0.0,0.0,27.17742332749,-0.006034269463271,-3.334666017458534
1,0.0,0.0,27.1774246537,-0.006057433318347,-3.3474668578627345
2,0.0,0.0,27.17742271654,-0.006872985977679,-3.7981586532947778
3,0.0,0.0,27.17742046647,-0.006919874344021,-3.82407016467267
4,0.0,0.0,27.17742183738,-0.007001413498074,-3.8691304404472064
5,0.0,0.0,27.36604252874,-0.006994615774602,-3.8653738734599123
6,0.0,0.0,27.36604626409,-0.007054071407765,-3.898230324545155
7,0.008000001311302,-2.747168764472e-06,27.36604901125,-0.006281222682446,-3.4711376339313036
8,0.01100000739098,-5.950918421149e-06,27.366052215,-0.006104912143201,-3.3737046692089447
9,0.01299999654293,-9.307404980063e-06,27.36605557149,-0.005980934482068,-3.305191969200997
10,0.01399999856949,-1.094653271139e-05,27.36605721062,-0.005872454028577,-3.24524335669425
11,0.1140000075102,-1.029606573866e-05,27.36605656015,-0.00873464345932,-4.826950287139134
12,0.2144999951124,1.529654412025e-07,27.36604611112,-0.005703317001462,-3.1517746277872356
13,0.3145000040531,-1.179055925604e-05,27.36605805465,-0.005462925881147,-3.0189293671152537
14,0.4150000065565,0.0003370832710061,27.36570918081,-0.008089759387076,-4.4705735933236355
15,0.4794999957085,0.01034309342504,27.35570317066,-0.003809359623119,-2.1051333820627374
16,0.5014999955893,0.02068855240941,27.34535771168,0.01608762517571,8.890364824041209
17,0.5129999965429,0.03099204972386,27.33505421436,0.02788624539971,15.410534026519006
18,0.5209999978542,0.04134895280004,27.32469731129,0.0261226631701,14.435940868909778
19,0.5275000035763,0.0513510890305,27.31469517506,0.0189205147326,10.455880019223336
20,0.5339999943972,0.06220008805394,27.30384617603,0.01518115680665,8.389431068165
21,0.5400000065565,0.07265999168158,27.2933862724,0.01195964496583,6.609154909499813
22,0.5460000038147,0.08325340598822,27.2827928581,0.009278866462409,5.127699527020836
23,0.5520000010729,0.09367134422064,27.27237491987,0.004941079299897,2.7305458152348927
24,0.5585000067949,0.1044669374824,27.2615793266,0.005496534984559,3.037502474548957
25,0.5649999976158,0.1144767031074,27.25156956098,-0.001898732734844,-1.0492802095861655
26,0.5725000053644,0.1246619448066,27.24138431928,0.00961450021714,5.313177899013653
27,0.5805000066757,0.134786143899,27.23126012019,0.02259210124612,12.48487704219641
28,0.5884999930859,0.1449561268091,27.22109013728,0.03016046062112,16.667313867290638
29,0.5964999943972,0.1555342823267,27.21051198176,0.03296044841409,18.214646845930023
30,0.6040000021458,0.1657042652369,27.20034199885,0.02885344997048,15.945031902974286
31,0.6120000034571,0.1762786060572,27.18976765803,0.02726477757096,15.067097648330984
32,0.6204999983311,0.186803355813,27.17924290827,0.02838760986924,15.68759872657576
33,0.6295000016689,0.197171702981,27.1688745611,0.03092152252793,17.087892910581456
34,0.6389999985695,0.2072615772486,27.15878468684,0.03236656636,17.88645495522866
35,0.6494999974966,0.2174792438745,27.14856702021,0.03903179615736,21.569803111802397
36,0.6605000048876,0.2278800159693,27.13816624812,0.04858952015638,26.851605261635978
37,0.6704999953508,0.2380398958921,27.12800636819,0.05113581195474,28.25874042227259
38,0.6800000071526,0.2481641024351,27.11788216165,0.05086893215775,28.11125695386176
39,0.6895000040531,0.2583340704441,27.10771219364,0.05223149433732,28.864237877988955
40,0.6994999945164,0.2687672674656,27.09727899662,0.05382770672441,29.746338890592728
41,0.7094999998808,0.2787961065769,27.08725015751,0.05869955196977,32.43862449051562
42,0.7199999988079,0.289044290781,27.0770019733,0.06409353017807,35.41945190294933
43,0.730499997735,0.2992161810398,27.06683008305,0.06971162557602,38.524131254843674
44,0.7409999966621,0.3095349371433,27.05651132694,0.07342523336411,40.57635013046549
45,0.7514999955893,0.3200100958347,27.04603616825,0.07778066396713,42.983253983813924
46,0.7615000009537,0.3301571905613,27.03588907352,0.07951587438583,43.94216827353844
47,0.7715000063181,0.3402928411961,27.02575342289,0.08205169439316,45.3435164990867
48,0.7814999967813,0.3503560125828,27.0156902515,0.08537048101425,47.17754877621768
49,0.7915000021458,0.3603657782078,27.00568048588,0.08874315023422,49.041357726815285
50,0.8015000075102,0.3704098761082,26.99563638798,0.09286016225815,51.316506387847326
51,0.8114999979734,0.380488306284,26.9855579578,0.09634011983871,53.23960517498705
52,0.8215000033379,0.390513330698,26.97553293339,0.09984391927719,55.17587948136447
53,0.832000002265,0.4009503424168,26.96509592167,0.1043986678123,57.69293067547324
54,0.8425000011921,0.4113835394382,26.95466272465,0.1102856993675,60.94622988432063
55,0.8530000001192,0.421820551157,26.94422571293,0.1145228743553,63.2877831622849
56,0.8634999990463,0.4322804510593,26.93376581303,0.1219615340233,67.3985451627728
57,0.8735000044107,0.442385584116,26.92366067997,0.1255545020103,69.3840959110436
58,0.883499994874,0.4526356756687,26.91341058842,0.1277181506157,70.57977428140227
59,0.8935000002384,0.4627865850925,26.90325967899,0.1288161277771,71.1865398808426
60,0.9039999991655,0.4731663763523,26.89287988773,0.1323370933533,73.13230056108091
61,0.9144999980927,0.4833692908287,26.88267697326,0.1367459893227,75.56875051631683
62,0.9249999970198,0.4935621619225,26.87248410216,0.1418510079384,78.38989269431961
63,0.9354999959469,0.5037931799889,26.8622530841,0.1480088829994,81.79286580161285
64,0.945999994874,0.5141271948814,26.8519190692,0.1535277962685,84.842734993532
65,0.9560000002384,0.5241331458092,26.84191311828,0.1566768288612,86.58295757369066
66,0.9660000056028,0.5341886878014,26.83185757628,0.1603823304176,88.6306967727732
67,0.9759999960661,0.5442518591881,26.8217944049,0.1644268631935,90.86579185534845
68,0.9860000014305,0.5542806982994,26.81176556579,0.1683159470558,93.014982552515
69,0.9960000067949,0.5643019080162,26.80174435607,0.172195494175,95.15890304202402
70,1.006500005722,0.5747732520103,26.79127301208,0.1773720383644,98.0195717777068
71,1.017000004649,0.5851721167564,26.78087414733,0.1813827157021,100.23595762299013
72,1.027500003576,0.5954832434654,26.77056302062,0.1873527169228,103.53510763875074
73,1.038000002503,0.6059011816978,26.76014508239,0.1938491463661,107.12517311912896
74,1.047999992967,0.6159719824791,26.75007428161,0.197501718998,109.1436626655493
75,1.057999998331,0.6261114478111,26.73993481627,0.2011743187904,111.17321964804486
76,1.068000003695,0.6362470984459,26.72979916564,0.2037912011147,112.61936463902458
77,1.077999994159,0.6463217139244,26.71972455016,0.2089276909828,115.45789850239107
78,1.088499993086,0.6568083167076,26.70923794738,0.213310778141,117.88008595805128
79,1.099000006914,0.6671957373619,26.69885052672,0.2195726037025,121.34050432920374
80,1.109500005841,0.6775259375572,26.68852032653,0.2256818413734,124.71659937728343
81,1.120000004768,0.6879133582115,26.67813290587,0.2322898507118,128.3683262877132
82,1.129999995232,0.6979231238365,26.66812314025,0.2356277108192,130.21289898021996
83,1.140000000596,0.7079634070396,26.65808285705,0.2397194504738,132.47408159089605
84,1.15000000596,0.71800750494,26.64803875915,0.2454290986061,135.62935493662852
85,1.159999996424,0.7282118201256,26.63783444396,0.2479045987129,136.99736909850955
86,1.170000001788,0.7384030818939,26.62764318219,0.2517317533493,139.1123363844822
87,1.180000007153,0.7484891414642,26.61755712262,0.2579725980759,142.56116029874394
88,1.189999997616,0.7585027217865,26.6075435423,0.2630223035812,145.35173527210105
89,1.20000000298,0.7685163021088,26.59752996198,0.2665594816208,147.30645530542898
90,1.210500001907,0.7789533138275,26.58709295026,0.2730129957199,150.87280485121025
91,1.221000000834,0.7894475460052,26.57659871808,0.2770437002182,153.10025813262408
92,1.231000006199,0.7994840145111,26.56656224957,0.2795199155807,154.46866756006145
93,1.240999996662,0.809535741806,26.55651052228,0.2842429876328,157.07873792002985
94,1.251499995589,0.8199880123138,26.54605825177,0.2889140844345,159.66008564798574
95,1.261999994516,0.8303525447845,26.5356937193,0.2932628393173,162.0633003559463
96,1.272499993443,0.8406484127045,26.52539785138,0.2994865179062,165.50263789635818
97,1.283000007272,0.8510129451752,26.51503331891,0.3056176900864,168.8908544221441
98,1.293500006199,0.8615109920502,26.50453527204,0.3109754323959,171.85165710398266
99,1.303499996662,0.8716771602631,26.49436910382,0.3145040273666,173.80163395035805
100,1.313500002027,0.8819196224213,26.48412664166,0.3194917440414,176.55795257374797
101,1.323500007391,0.8921163082123,26.47392995587,0.3236688375473,178.86630354326547
102,1.333499997854,0.9021260738373,26.46392019025,0.327984213829,181.25107252428657
103,1.343999996781,0.9124143123627,26.45363195172,0.3325074911118,183.75073203308133
104,1.354499995708,0.9225289821625,26.44351728192,0.3388551473618,187.25858227348294
105,1.364999994636,0.932639837265,26.43340642682,0.344778418541,190.53190827155046
106,1.375499993563,0.9429605007172,26.42308576337,0.3495267629623,193.15594468180296
107,1.385499998927,0.9530656337738,26.41298063031,0.3539003133774,195.57286192980567
108,1.395500004292,0.9633462429047,26.40270002118,0.3573058843613,197.45485309695152
109,1.405499994755,0.9736039638519,26.39244230023,0.3602632284164,199.0891445024814
110,1.415500000119,0.9836992025375,26.38234706155,0.3637167215347,200.99761846328448
111,1.425999999046,0.9941056966782,26.37194056741,0.3687874078751,203.79978789364284
112,1.436499997973,1.004382491112,26.36166377297,0.3737531900406,206.54398503932651
113,1.446999996901,1.014729857445,26.35131640664,0.3809210062027,210.5050731413133
114,1.457000002265,1.024838805199,26.34120745889,0.386012673378,213.3188370285624
115,1.467000007629,1.035100340843,26.33094592324,0.3901726007462,215.6177016242301
116,1.476999998093,1.045281767845,26.32076449624,0.3947044610977,218.1221043198669
117,1.487000003457,1.055295348167,26.31075091592,0.3990122079849,220.50265713475093
118,1.497500002384,1.065598845482,26.3004474186,0.4038368463516,223.16885520659508
119,1.508000001311,1.075873732567,26.29017253152,0.4101930856705,226.68144863394923
120,1.518500000238,1.08636033535,26.27968592874,0.4153696298599,229.542117369632
121,1.528500005603,1.096499800682,26.2695464634,0.4199291467667,232.0618036676469
122,1.538499996066,1.106704115868,26.25934214822,0.4242845773697,234.46870752098428
123,1.548500001431,1.116832137108,26.24921412698,0.4294344186783,237.31461967515972
124,1.558500006795,1.126849532127,26.23919673196,0.4345566034317,240.1452482270123
125,1.569000005722,1.137221693993,26.22882457009,0.4391733407974,242.69655577113804
126,1.579500004649,1.147530913353,26.21851535073,0.4452263116837,246.04155659386714
127,1.590000003576,1.157925963402,26.20812030068,0.4515091180801,249.51356942191032
128,1.600500002503,1.16842019558,26.19762606851,0.4555860757828,251.76658321066478
129,1.610499992967,1.178429961205,26.18761630288,0.4601970911026,254.31472863017387
130,1.620499998331,1.188470244408,26.17757601968,0.4664665460587,257.7793631675187
131,1.630500003695,1.198602080345,26.16744418374,0.4703398942947,259.91985802194813
132,1.640499994159,1.208699584007,26.15734668008,0.4738036394119,261.8339974560203
133,1.650499999523,1.218747496605,26.14729876748,0.4785519838333,264.45803386632804
134,1.660500004888,1.228795409203,26.13725085488,0.4822589159012,266.5065635965786
135,1.671000003815,1.239286422729,26.12675984136,0.4860753417015,268.6156018988744
136,1.681500002742,1.249670028687,26.1163762354,0.4922217726707,272.0122507569344
137,1.692000001669,1.260068893433,26.10597737065,0.4979581236839,275.1822806842295
138,1.702500000596,1.270555496216,26.09549076787,0.5034484267235,278.2163392530656
139,1.71250000596,1.280626296997,26.08541996709,0.5078653693199,280.6572359460177
140,1.722499996424,1.290784835815,26.07526142827,0.5129303336143,283.45624325170417
141,1.732500001788,1.300966262817,26.06508000127,0.5160631537437,285.18750647882854
142,1.742500007153,1.311105728149,26.05494053594,0.520708501339,287.75462464609257
143,1.752499997616,1.321130752563,26.04491551152,0.526546895504,290.98104579567115
144,1.762999996543,1.331552505493,26.03449375859,0.5336880087852,294.92737731609526
145,1.77349999547,1.342031478882,26.0240147852,0.5396217703819,298.2065005426358
146,1.783500000834,1.352151870728,26.01389439336,0.5446867346764,301.0055078483776
147,1.793500006199,1.362363815308,26.00368244878,0.5484508872032,303.0856588247389
148,1.803499996662,1.372522354126,25.99352390996,0.5526642203331,305.41403658347656
149,1.813500002027,1.382532119751,25.98351414433,0.5571932196617,307.9168582168327
150,1.824000000954,1.392858505249,25.97318775884,0.5627645850182,310.99571355106156
151,1.834499999881,1.403125762939,25.96292050115,0.5695089697838,314.7228044314744
152,1.844999998808,1.413555145264,25.95249111882,0.5736641287804,317.0190339232857
153,1.855000004172,1.423645019531,25.94240124455,0.5776543021202,319.2240888219755
154,1.864999994636,1.433815002441,25.93223126164,0.5829166769981,322.1321894269075
155,1.875,1.444023132324,25.92202313176,0.5875934958458,324.71669927953525
156,1.885000005364,1.454162597656,25.91188366643,0.5923580527306,327.34969504293264
157,1.894999995828,1.464168548584,25.9018777155,0.5992884039879,331.17955497335765
158,1.905499994755,1.474617004395,25.89142925969,0.6052488684654,334.47343478140556
159,1.915999993682,1.485082387924,25.88096387616,0.6099593043327,337.0765221161213
160,1.92650000751,1.495576620102,25.87046964398,0.6154362559319,340.1032023942038
161,1.936499997973,1.505635976791,25.86041028729,0.620346724987,342.8168323352418
162,1.946500003338,1.515790700912,25.85025556317,0.6237341761589,344.68881010777767
163,1.956499993801,1.525937795639,25.84010846845,0.6276013255119,346.82587932723794
164,1.966499999166,1.535974264145,25.83007199994,0.633325278759,349.9890579845396
165,1.976999998093,1.546384572983,25.8196616911,0.6389595866203,353.1026966894959
166,1.98749999702,1.556737661362,25.80930860272,0.6449992060661,356.440319221416
167,1.997999995947,1.5670773983,25.79896886579,0.652859389782,360.78402440195737
168,2.008000001311,1.577106237411,25.78894002667,0.6577402949333,363.48131669915216
169,2.018000006676,1.587333440781,25.77871282331,0.6613556742668,365.4792524355369
170,2.027999997139,1.597564458847,25.76848180524,0.6655794978142,367.8134274227475
171,2.038000002503,1.607589483261,25.75845678082,0.6709534525871,370.78318945767575
172,2.048500001431,1.617938756943,25.74810750714,0.6765219569206,373.86046372956866
173,2.059000000358,1.628181219101,25.73786504498,0.6831004023552,377.49585299615507
174,2.069499999285,1.638515233994,25.72753103009,0.6876599192619,380.0155392941147
175,2.079500004649,1.648540258408,25.71750600568,0.6928107142448,382.86197846905037
176,2.089499995112,1.658714056015,25.70733220807,0.6970211863518,385.1887751655073
177,2.099500000477,1.668834447861,25.69721181623,0.7011906504631,387.4929099688325
178,2.109500005841,1.678855657578,25.68719060651,0.7065140604973,390.4347399030267
179,2.120000004768,1.689265966415,25.67678029767,0.7137886881828,394.45485433115334
180,2.129999995232,1.699298620224,25.66674764386,0.7181851267815,396.8844200776225
181,2.140000000596,1.709438085556,25.65660817853,0.7218434214592,398.9060717486042
182,2.15000000596,1.719592809677,25.64645345441,0.727096259594,401.8089021458786
183,2.159999996424,1.729713201523,25.63633306256,0.7317444682121,404.37760137536804
184,2.170000001788,1.739776134491,25.62627012959,0.7375966310501,407.6116313873347
185,2.180000007153,1.749778270721,25.61626799336,0.7439900636673,411.1447786246692
186,2.189999997616,1.759875774384,25.6061704897,0.7495929002762,414.24102564426175
187,2.20000000298,1.770080089569,25.59596617452,0.7534376382828,416.3657098756634
188,2.209999993443,1.780311107635,25.58573515645,0.7577301263809,418.73783035821805
189,2.219999998808,1.790423870087,25.575622394,0.7612625360489,420.68991528768964
190,2.230499997735,1.800794124603,25.56525213948,0.7667518854141,423.7234468357102
191,2.240999996662,1.810958385468,25.55508787862,0.7736755609512,427.5496176207585
192,2.251499995589,1.821126461029,25.54491980306,0.7800003290176,431.04481936269366
193,2.261999994516,1.831422328949,25.53462393514,0.7863975763321,434.5800746831243
194,2.271999999881,1.841485500336,25.52456076375,0.7923303842545,437.85867088890456
195,2.282000005245,1.851785182953,25.51426108113,0.7979694604874,440.9749446977173
196,2.291999995708,1.862153530121,25.50389273397,0.8014293909073,442.8869760486933
197,2.302000001073,1.872399806976,25.49364645711,0.8063703775406,445.61747065439016
198,2.312000006437,1.882417201996,25.48362906209,0.8124662637711,448.9861874117162
199,2.322500005364,1.89272069931,25.47332556478,0.8190027475357,452.59838776441063
200,2.333000004292,1.90287733078,25.46316893331,0.8235927820206,455.13493872702907
201,2.343500003219,1.913070201874,25.45297606221,0.8309246301651,459.1866744013218
202,2.354000002146,1.92348241806,25.44256384603,0.8367286920547,462.39412280320073
203,2.36400000751,1.933602809906,25.43244345418,0.8409057855606,464.70247377271824
204,2.373999997973,1.943730831146,25.42231543294,0.8442178964615,466.5328169044779
205,2.384499996901,1.954171657562,25.41187460652,0.8505045175552,470.0069378156172
206,2.394999995828,1.964475154877,25.40157110921,0.8563314676285,473.22703471601784
207,2.405499994755,1.974759578705,25.39128668538,0.8622537851334,476.4998336933251
208,2.416000008583,1.98516368866,25.38088257543,0.8683713674545,479.88054017309827
209,2.425999999046,1.995268821716,25.37077744237,0.8740972280502,483.04477287192026
210,2.436000004411,2.00546169281,25.36058457128,0.8782247304916,485.3257187614088
211,2.445999994874,2.015616416931,25.35042984715,0.8842643499374,488.6633412933289
212,2.456000000238,2.025626182556,25.34042008153,0.8887132406235,491.1218931821078
213,2.466499999166,2.035908699036,25.33013756505,0.8948873281479,494.5338256424906
214,2.476999998093,2.046097755432,25.31994850865,0.9016584157944,498.27567310446614
215,2.48749999702,2.056454658508,25.30959160558,0.9069932699203,501.2238272878383
216,2.497500002384,2.066521644592,25.29952461949,0.911404967308,503.6618253665815
217,2.507500007749,2.076680183411,25.28936608068,0.9157146215439,506.0434322230413
218,2.517499998212,2.086899757385,25.2791465067,0.92132127285,509.1417873256748
219,2.527500003576,2.097130775452,25.26891548863,0.9263423681259,511.9165516760041
220,2.53749999404,2.1072473526,25.25879891149,0.9315017461777,514.7677340378923
221,2.547999992967,2.117642402649,25.24840386144,0.9385589361191,518.667687730643
222,2.558500006795,2.127961158752,25.23808510533,0.9466499090195,523.1389319373139
223,2.569000005722,2.13832950592,25.22771675817,0.9525159597397,526.3806366892154
224,2.579500004649,2.148694038391,25.21735222569,0.9584563970566,529.6634490611327
225,2.590000003576,2.159123420715,25.20692284337,0.9643148183823,532.9009376468971
226,2.600500002503,2.169602394104,25.19644386998,0.968877196312,535.4222050071926
227,2.611000001431,2.180035591125,25.18601067296,0.9736140966415,538.0399171682119
228,2.621500000358,2.190457344055,25.17558892003,0.977642416954,540.2660528976976
229,2.631999999285,2.200882911682,25.1651633524,0.9837793111801,543.6574315481
230,2.642499998212,2.211270332336,25.15477593175,0.9892944097519,546.705192656923
231,2.652999997139,2.221707344055,25.14433892003,0.9950536489487,549.8878710826846
232,2.663499996066,2.232167243958,25.13387902013,1.001196265221,553.2824118578695
233,2.673999994993,2.242652177811,25.12339408628,1.008846759796,557.5102383464424
234,2.684000000358,2.252738237381,25.1133080267,1.013455867767,560.0573297243205
235,2.694000005722,2.262850999832,25.10319526425,1.01800775528,562.5727998565851
236,2.703999996185,2.272883653641,25.09316261045,1.022773265839,565.2063226406875
237,2.714499995112,2.283332109451,25.08271415463,1.028322696686,568.2730564970996
238,2.72499999404,2.293647050858,25.07239921323,1.033354759216,571.053881585978
239,2.735499992967,2.303857088089,25.062189176,1.039679527283,574.5490833282448
