,time,travel,position,force,stress
0,0.0,0.0,19.66153130122,-0.0095359608531,-5.269775371186362
1,0.0,0.0,19.6615309883,-0.009561531245708,-5.283906115562625
2,0.0,0.0,19.66151862778,-0.01005544513464,-5.5568534658586985
3,0.0,0.0,19.66150260904,-0.0103372707963,-5.712596337884161
4,0.0,0.0,19.66150130891,-0.01033935695887,-5.713749195818566
5,0.0,0.0,19.70990597559,-0.009584876708686,-5.296807316367199
6,0.0,0.0,19.7099062745,-0.009753557853401,-5.390024114935921
7,0.008000001311302,1.214444637299e-06,19.70990506005,-0.009958709590137,-5.503395340579745
8,0.01100000739098,-2.705492079258e-06,19.70990897999,-0.00949355494231,-5.24634096035809
9,0.01300001144409,-5.991198122501e-06,19.7099122657,-0.009098256938159,-5.027890851486589
10,0.01400001347065,-7.999129593372e-06,19.70991427363,-0.008916105143726,-4.9272298845523155
11,0.1145000010729,-1.07618407128e-05,19.70991703634,-0.009458638727665,-5.227045515376113
12,0.2145000100136,-3.364615622559e-05,19.70993992065,-0.008567364886403,-4.734508579663097
13,0.315000012517,1.906834881993e-06,19.70990436766,-0.009640904143453,-5.327769271894723
14,0.4155000001192,-4.852228812524e-06,19.70991112673,-0.006456816568971,-3.5681745610742586
15,0.5010000020266,0.01009249873459,19.69981377576,-0.0007974142208695,-0.44066810744150464
16,0.5200000107288,0.02016902156174,19.68973725294,0.01274571474642,7.043553837263912
17,0.530500009656,0.0305831450969,19.6793231294,0.01930332928896,10.667431508571338
18,0.5385000109673,0.04113078117371,19.66877549332,0.02202940732241,12.173920377591479
19,0.5450000017881,0.05149149894714,19.65841477555,0.04023791104555,22.23632792566409
20,0.5505000054836,0.06209635734558,19.64780991715,0.03306520730257,18.272538842230038
21,0.5555000007153,0.07270121574402,19.63720505875,0.0200342014432,11.071327050639109
22,0.560500010848,0.08360362052917,19.62630265397,0.008826619945467,4.877778455258989
23,0.5655000060797,0.09430766105652,19.61559861344,0.002626783214509,1.4516164340969646
24,0.5705000013113,0.1044852733612,19.60542100114,0.001141942106187,0.6310615657098302
25,0.5760000050068,0.1148383617401,19.59506791276,-0.003964268602431,-2.1907393882669908
26,0.582000002265,0.1249167919159,19.58498948258,0.00386921223253,2.1382092106901998
27,0.5890000015497,0.1355216503143,19.57438462418,0.005244172178209,2.8980414048158134
28,0.5975000113249,0.1460120677948,19.5638942067,-0.003007494844496,-1.6620058014754497
29,0.6095000058413,0.1563403606415,19.55356591386,0.03233186155558,17.867276340046438
30,0.6215000003576,0.1665988117456,19.54330746275,0.04372461885214,24.16315703169151
31,0.6320000141859,0.1769271045923,19.53297916991,0.04438178986311,24.526323749929617
32,0.6415000110865,0.1869521290064,19.52295414549,0.04555041342974,25.172130059800608
33,0.651000007987,0.1971869617701,19.51271931273,0.04617623612285,25.517973028924008
34,0.6605000048876,0.2072348743677,19.50267140013,0.049660962075,27.44370691991458
35,0.670500010252,0.2174048572779,19.49250141722,0.05708054825664,31.543928504999048
36,0.6810000091791,0.2279029041529,19.48200337035,0.0649426355958,35.8886856683585
37,0.6909999996424,0.2379775196314,19.47192875487,0.06944016367197,38.37411561633432
38,0.7010000050068,0.2481894642115,19.46171681029,0.07296780496836,40.32356544194394
39,0.7110000103712,0.2584243118763,19.45148196262,0.07652501016855,42.28935291139683
40,0.7210000008345,0.2685332596302,19.44137301487,0.08049992471933,44.485975477801475
41,0.7314999997616,0.2789511978626,19.43095507664,0.08807400614023,48.67157442751232
42,0.7420000135899,0.2892928421497,19.42061343235,0.09579876810312,52.94044265876994
43,0.752500012517,0.2996764481068,19.41022982639,0.1036112681031,57.25779680079164
44,0.7630000114441,0.3100791275501,19.39982714695,0.1089642420411,60.2159643788291
45,0.7735000103712,0.3205085098743,19.38939776462,0.1133902445436,62.66186776914151
46,0.7840000092983,0.3309035599232,19.37900271457,0.1192353144288,65.89197806409692
47,0.7945000082254,0.3412833511829,19.36862292332,0.1250470131636,69.10364674952864
48,0.8050000071526,0.3517012894154,19.35820498508,0.1325600594282,73.25551636997722
49,0.815000012517,0.3617224991322,19.34818377537,0.1391423195601,76.89301371965983
50,0.8250000029802,0.3718314468861,19.33807482761,0.1450989693403,80.1847854446115
51,0.8350000083447,0.3819670975208,19.32793917698,0.1485274285078,82.07942511022384
52,0.8450000137091,0.3920264542103,19.31787982029,0.153754517436,84.96802594669586
53,0.8555000126362,0.402463465929,19.30744280857,0.1597216576338,88.2655949001758
54,0.8660000115633,0.4127705097198,19.29713576478,0.1674810349941,92.55359233839485
55,0.8765000104904,0.4230663776398,19.28683989686,0.1762777268887,97.41483191437402
56,0.8870000094175,0.4334690570831,19.27643721741,0.185101121664,102.29082807180527
57,0.8969999998808,0.4435665607452,19.26633971375,0.1908021867275,105.44135823064045
58,0.9070000052452,0.4537479877472,19.25615828675,0.1960922181606,108.3647424378952
59,0.9170000106096,0.4639408588409,19.24596541566,0.2016673982143,111.44570585516497
60,0.9270000010729,0.4740078449249,19.23589842957,0.2091861665249,115.60073760028543
61,0.9375,0.484406709671,19.22549956483,0.2177177369595,120.31546540238008
62,0.9480000138283,0.4947597980499,19.21514647645,0.2277313172817,125.84918347990045
63,0.9585000127554,0.505215883255,19.20469039124,0.2353092133999,130.03689051270743
64,0.9685000032187,0.5152714252472,19.19463484925,0.2419734895229,133.7197116484878
65,0.9785000085831,0.5253956317902,19.18451064271,0.2480197846889,137.0610233257848
66,0.9885000139475,0.5355350971222,19.17437117738,0.2545410096645,140.66479134620513
67,0.9985000044107,0.5456097126007,19.1642965619,0.261727899313,144.63641986361748
68,1.009000003338,0.5561039447784,19.15380232972,0.2700935304165,149.25944605183045
69,1.019500002265,0.5665218830109,19.14338439149,0.2791477143764,154.26298123544652
70,1.030000001192,0.5769588947296,19.13294737977,0.2890106141567,159.7134300314698
71,1.040500000119,0.5873920917511,19.12251418275,0.2973934113979,164.3459425935326
72,1.051000013947,0.5978519916534,19.11205428284,0.3051029145718,168.60637849252166
73,1.061500012875,0.6082890033722,19.10161727113,0.3151584565639,174.16328548387875
74,1.072000011802,0.618668794632,19.09123747987,0.3253303468227,179.78448900914373
75,1.082500010729,0.6290409564972,19.080865318,0.334783166647,185.00831887440208
76,1.093000009656,0.6393940448761,19.07051222962,0.3444305360317,190.33966097651466
77,1.103500008583,0.6497242450714,19.06018202943,0.3532138764858,195.1935222616849
78,1.11400000751,0.660161614418,19.04974466008,0.3603625297546,199.14402054008613
79,1.124000012875,0.6702095270157,19.03969674748,0.3682188987732,203.48561763753133
80,1.134000003338,0.6803489923477,19.02955728215,0.377091884613,208.3890188749916
81,1.144000008702,0.6904884576797,19.01941781682,0.3873171806335,214.03973556332653
82,1.154000014067,0.700502038002,19.0094042365,0.3977999687195,219.83274785940893
83,1.164500012994,0.7108513116837,18.99905496281,0.409957408905,226.55120862630605
84,1.175000011921,0.7212044000626,18.98870187444,0.4203066825867,232.27043801468596
85,1.185500010848,0.731679558754,18.97822671574,0.4295153617859,237.35935056295054
86,1.195500001311,0.7417694330215,18.96813684148,0.4378199577332,241.94864742195648
87,1.205500006676,0.7518593072891,18.95804696721,0.4476466178894,247.37906942870444
88,1.21550001204,0.7618767023087,18.94802957219,0.4578013420105,252.9907865801196
89,1.226000010967,0.7722564935684,18.93764978093,0.4706950187683,260.11610738092844
90,1.236500009894,0.7825752496719,18.92733102483,0.4829707145691,266.89991872325396
91,1.247000008821,0.7928863763809,18.91701989812,0.4936594963074,272.80676750547906
92,1.257500007749,0.8033539056778,18.90655236882,0.5047183036804,278.91810034615287
93,1.267500013113,0.813523888588,18.89638238591,0.5138583183289,283.96906739907337
94,1.277500003576,0.8237968683243,18.88610940617,0.5225558280945,288.7754968149944
95,1.287500008941,0.8339515924454,18.87595468205,0.5345759391785,295.41806659114815
96,1.297500014305,0.8440376520157,18.86586862248,0.5476565361023,302.64668346272947
97,1.307500004768,0.8541313409805,18.85577493352,0.5587935447693,308.8012320065153
98,1.317500010133,0.8641945123672,18.84571176213,0.5697722434998,314.86829510261185
99,1.327500000596,0.874215722084,18.83569055241,0.5818724632263,321.5551346233429
100,1.33750000596,0.8842369318008,18.8256693427,0.59233045578,327.3344443793831
101,1.348000004888,0.894708275795,18.8151979987,0.6036467552185,333.5880728278043
102,1.358500003815,0.9051033258438,18.80480294865,0.6174902915955,341.2383063148599
103,1.369000002742,0.9155387282372,18.79436754626,0.6306246519089,348.496633982317
104,1.379500001669,0.9259795546532,18.78392671984,0.6414927244186,354.50256266912214
105,1.390000000596,0.9363440871239,18.77356218737,0.6544703245163,361.67426129765977
106,1.400500014424,0.94674295187,18.76316332263,0.6668871641159,368.53607171382475
107,1.411000013351,0.9570731520653,18.75283312243,0.6783884763718,374.891942191498
108,1.422000005841,0.9675044417381,18.74240183276,0.6906031370163,381.64202420456127
109,1.434000000358,0.9778899550438,18.73201631945,0.7021845579147,388.0421644268117
110,1.448000013828,0.9878978133202,18.72200846118,0.714115023613,394.63519425067545
111,1.470000013709,0.997521340847,18.71238493365,0.7272375822067,401.8870000360934
112,1.570500001311,1.003414154053,18.70649212045,0.7418355941772,409.9541728292175
113,1.670500010252,1.00278878212,18.70711749238,0.7377871274948,407.7169037859994
114,1.771000012755,1.002037882805,18.70786839169,0.7355781197548,406.4961589903423
115,1.871500000358,1.00138258934,18.70852368516,0.7332596182823,405.2149056225846
116,1.971500009298,1.000937819481,18.70896845502,0.733225941658,405.19629520166797
117,2.072000011802,1.000597953796,18.7093083207,0.7306371331215,403.7656643846455
118,2.172500014305,1.000396847725,18.70950942677,0.7286843061447,402.68649054311453
119,2.273000001907,1.000256538391,18.70964973611,0.7281405925751,402.3860228270451
120,2.373000010848,1.000134587288,18.70977168721,0.7270495891571,401.78311106695884
121,2.473500013351,1.000074505806,18.70983176869,0.7242885828018,400.25732006225695
122,2.574000000954,1.000062227249,18.70984404725,0.7258012294769,401.0932408799434
123,2.674000009894,1.000043988228,18.70986228627,0.7256566882133,401.01336429458684
124,2.774500012398,1.000033855438,18.70987241906,0.7240418195724,400.1209534381864
125,2.875,0.9999974966049,18.70990877789,0.7228953838348,399.48740859590777
126,2.975000008941,1.000017642975,18.70988863152,0.7190910577774,397.3850568696282
127,3.075500011444,0.9999796152115,18.70992665929,0.7210863828659,398.487716074177
128,3.176000013947,1.000001430511,18.70990484399,0.7203405499458,398.07555289377916
129,3.27650000155,1.00003194809,18.70987432641,0.7172293663025,396.3562464503839
130,3.37650001049,0.9999910593033,18.70991521519,0.7188776135445,397.2671030337237
131,3.477000012994,0.9999879598618,18.70991831464,0.7189627289772,397.3141396373613
132,3.577500000596,1.000021696091,18.70988457841,0.7166086435318,396.0132218071665
133,3.677500009537,1.000010371208,18.70989590329,0.7172450423241,396.36490935429237
134,3.77800001204,1.000003218651,18.70990305585,0.7151669859886,395.216531097979
135,3.878499999642,0.9999746084213,18.70993166608,0.716752409935,396.0926701881381
136,3.978500008583,1.000002026558,18.70990424794,0.7152724266052,395.2747998317795
137,4.079000011086,1.000019073486,18.70988720101,0.7152065038681,395.2383695211142
138,4.17950001359,0.9999965429306,18.70990973157,0.7142236828804,394.69524167956234
139,4.280000001192,1.000007987022,18.70989828748,0.7139272093773,394.5314040979161
140,4.380000010133,0.9999982714653,18.70990800303,0.7126761674881,393.84005166499526
141,4.480500012636,1.000010728836,18.70989554566,0.7123202681541,393.64337410162995
142,4.581000000238,1.000016927719,18.70988934678,0.7098413705826,392.27348242828714
143,4.681000009179,1.000014781952,18.70989149255,0.7120351195335,393.4857948916149
144,4.781500011683,0.9999794960022,18.7099267785,0.7109885215759,392.9074225361221
145,4.882000014186,1.000018715858,18.70988755864,0.707987844944,391.2491846243609
146,4.982500001788,1.000010848045,18.70989542645,0.7102251052856,392.4855424102953
147,5.082500010729,1.000044822693,18.70986145181,0.7098657488823,392.2869543966949
148,5.183000013232,1.000009894371,18.70989638013,0.7111780047417,393.0121349752533
149,5.283500000834,0.9999988675117,18.70990740699,0.7117252349854,393.3145460804416
150,5.383500009775,1.000002861023,18.70990341348,0.709206700325,391.9227501063064
151,5.484000012279,1.000014901161,18.70989137334,0.7082878947258,391.4149985338995
152,5.584499999881,0.999999165535,18.70990710896,0.7084315419197,391.4943810372692
153,5.684500008821,0.9999931454659,18.70991312903,0.7099704146385,392.3447949261104
154,5.785000011325,1.000020027161,18.70988624734,0.7093782424927,392.0175479672028
155,5.885500013828,1.000025987625,18.70988028687,0.7084951996803,391.5295596736082
156,5.985500007868,1.000015497208,18.70989077729,0.7084892392159,391.52626579384304
157,6.085500001907,0.9999898672104,18.70991640729,0.7058805823326,390.08466635701006
158,6.185500010848,1.000020384789,18.70988588971,0.7078792452812,391.1891701342473
159,6.285500004888,0.9999918937683,18.70991438073,0.7070226669312,390.7158066670667
160,6.385500013828,0.9999918937683,18.70991438073,0.706862449646,390.6272671778016
161,6.485500007868,0.9999980330467,18.70990824145,0.7069727182388,390.6882039542319
162,6.585500001907,0.9999809265137,18.70992534798,0.7059638500214,390.1306818579558
163,6.685500010848,0.9999901652336,18.70991610926,0.7069374322891,390.66870418577196
164,6.785500004888,1.000022411346,18.70988386315,0.7032319903374,388.62099792551805
165,6.885500013828,1.000012874603,18.70989339989,0.7060450315475,390.17554450089517
166,6.985500007868,1.000003099442,18.70990317506,0.7020248770714,387.953921386783
167,7.085500001907,0.9999949932098,18.70991128129,0.7052484750748,389.7353504033881
168,7.185500010848,0.999986410141,18.70991986436,0.7022356987,388.07042591561066
169,7.285500004888,1.000025987625,18.70988028687,0.7034015655518,388.71470880606535
170,7.385500013828,1.000019192696,18.7098870818,0.7032077908516,388.60762477348555
171,7.485500007868,0.9999985694885,18.70990770501,0.7032886743546,388.652322722503
172,7.585500001907,1.000020980835,18.70988529366,0.7020660042763,387.97664915746134
173,7.685500010848,1.000028133392,18.70987814111,0.6985300779343,386.0226208389262
174,7.785500004888,1.000005841255,18.70990043324,0.7032712697983,388.64270459344937
175,7.885500013828,1.000001788139,18.70990448636,0.7008754014969,387.31869666579314
176,7.985500007868,1.000041842461,18.70986443204,0.7024846673012,388.2080112751789
177,8.085500001907,1.000012874603,18.70989339989,0.6999870538712,386.82777681921635
178,8.185500010848,1.000024080276,18.70988219422,0.700542986393,387.1349969889039
179,8.285500004888,0.9999846816063,18.70992159289,0.6997390389442,386.6907184803531
180,8.385500013828,1.000030994415,18.70987528008,0.6991647481918,386.3733531608516
181,8.485500007868,0.999972641468,18.70993363303,0.6993959546089,386.5011227586156
182,8.585500001907,0.9999841451645,18.70992212933,0.6980528831482,385.75891282147654
183,8.685500010848,1.000000357628,18.70990591687,0.6983315348625,385.91290170249
184,8.785500004888,0.9999884963036,18.70991777819,0.6971272826195,385.24740622609085
185,8.885500013828,0.9999971389771,18.70990913552,0.7003858089447,387.0481373783501
186,8.985500007868,0.9999982118607,18.70990806264,0.6992038488388,386.3949610124077
187,9.085500001907,1.000018596649,18.70988767785,0.6986500620842,386.0889266394444
188,9.185500010848,1.000021219254,18.70988505524,0.6977239251137,385.57712359487766
189,9.285500004888,0.9999840259552,18.70992224854,0.6981208324432,385.79646305126425
190,9.385500013828,0.9999899864197,18.70991628808,0.6976532936096,385.5380911191293
191,9.485500007868,1.00000679493,18.70989947957,0.6980121731758,385.73641562237725
192,9.585500001907,1.000002503395,18.7099037711,0.6958842873573,384.5605005308862
193,9.685500010848,1.000009536743,18.70989673775,0.6968316435814,385.08402978760284
194,9.785500004888,1.000002861023,18.70990341348,0.6964772939682,384.8882086330074
195,9.885500013828,1.000005960464,18.70990031403,0.6967237591743,385.02441056304554
196,9.985500007868,1.000002503395,18.7099037711,0.6971969604492,385.2859116810237
197,10.08550000191,1.00003695488,18.70986931962,0.6949415206909,384.0395075616507
198,10.18550001085,1.000017046928,18.70988922757,0.6920796632767,382.45798411062947
199,10.28550000489,0.9999988675117,18.70990740699,0.6931791901588,383.06560611878444
200,10.38550001383,1.000015974045,18.70989030045,0.6953142285347,384.2454738660601
201,10.48550000787,0.9999987483025,18.7099075262,0.6948598027229,383.9943484694749
202,10.58550000191,1.000007033348,18.70989924115,0.6950318813324,384.08944277955237
203,10.68550001085,0.9999903440475,18.70991593045,0.6936299204826,383.31468930987535
204,10.78550000489,1.000020623207,18.70988565129,0.6950981020927,384.12603778419486
205,10.88550001383,1.000020861626,18.70988541287,0.6943066716194,383.6886764232947
206,10.98550000787,0.9999929666519,18.70991330785,0.6964036822319,384.8475292173764
207,11.08550000191,0.999990940094,18.7099153344,0.6943494677544,383.712326480345
208,11.18550001085,1.000005960464,18.70990031403,0.6956295967102,384.4197530467013
209,11.28550000489,0.9999789595604,18.70992731494,0.6959896087646,384.6187033870848
210,11.38550001383,0.9999963641167,18.70990991038,0.6970395445824,385.1989203153213
211,11.48550000787,0.9999980926514,18.70990818185,0.6955253481865,384.36214308886497
212,11.58550000191,1.00000834465,18.70989792985,0.6927295923233,382.8171487648843
213,11.68550001085,1.000020980835,18.70988529366,0.6939924955368,383.5150560186175
214,11.78550000489,0.9999907016754,18.70991557282,0.6915755271912,382.1793877564686
215,11.88550001383,1.000017404556,18.70988886994,0.6941654682159,383.61064441062655
216,11.98550000787,1.000003695488,18.70990257901,0.6905949115753,381.63747865041444
217,12.08550000191,0.9999893903732,18.70991688412,0.6922490596771,382.55159617474624
218,12.18550001085,0.9999929070473,18.70991336745,0.6914342045784,382.1012898661985
219,12.28550000489,1.00000667572,18.70989959878,0.6914644241333,382.11798983682485
220,12.38550001383,1.000005483627,18.70990079087,0.6948346495628,383.98044829668225
221,12.48550000787,1.00003015995,18.70987611455,0.6917133331299,382.25554225761977
222,12.58550000191,1.00003182888,18.70987444562,0.6927288770676,382.81675349932794
223,12.68550001085,1.000023603439,18.70988267106,0.6908478140831,381.77723797068086
224,12.78550000489,1.000032663345,18.70987361115,0.6909660696983,381.8425885460539
225,12.88550001383,0.9999831318855,18.70992314261,0.6895373463631,381.05304555609627
226,12.98550000787,1.00002515316,18.70988112134,0.6885749101639,380.52118278348075
227,13.08550000191,1.000007867813,18.70989840668,0.6904606819153,381.5633004771556
228,13.18550001085,1.000007033348,18.70989924115,0.6892746090889,380.90785133413993
229,13.28550000489,0.9999949932098,18.70991128129,0.6918957233429,382.3563349797396
230,13.38550001383,0.9999923110008,18.7099139635,0.6899948716164,381.3058837701659
231,13.48550000787,0.9999576210976,18.7099486534,0.687808573246,380.0976886565446
232,13.58550000191,1.000020027161,18.70988624734,0.6880113482475,380.2097464476009
233,13.68550001085,0.9999806284904,18.70992564601,0.6886513233185,380.56341032261906
234,13.78550000489,1.000018596649,18.70988767785,0.6880158185959,380.21221685748003
235,13.88550001383,1.000020027161,18.70988624734,0.688711643219,380.59674438626973
236,13.98550000787,1.000009536743,18.70989673775,0.6891157627106,380.82006943726947
237,14.08550000191,1.000009894371,18.70989638013,0.6854196190834,378.77750162946916
238,14.18550001085,1.000023007393,18.70988326711,0.6875559091568,379.9580610914822
