,time,travel,position,force,stress
0,0.0,0.0,24.95567154717,-0.006419914774597,-3.5477818423812626
1,0.0,0.0,24.95567166638,-0.006232517771423,-3.444222261215465
2,0.0,0.0,24.95565934964,-0.005802717059851,-3.2067052202741535
3,0.0,0.0,24.95566887893,-0.006200101226568,-3.4263081870778493
4,0.0,0.0,24.95567431785,-0.006262328475714,-3.4606962922743656
5,0.0,0.0,24.97066436132,-0.007357613183558,-4.0659739844491405
6,0.0,0.0,24.97066105175,-0.006721512414515,-3.7144511313319546
7,0.008000001311302,4.014931619167e-06,24.97065703682,-0.006417707540095,-3.5465620775147477
8,0.01099999248981,7.783062756062e-06,24.97065326869,-0.006121353246272,-3.38279037345767
9,0.01299999654293,1.026783138514e-05,24.97065078392,-0.005819515325129,-3.2159882999768015
10,0.01399999856949,1.240242272615e-05,24.97064864933,-0.005680278874934,-3.1390432676604725
11,0.1145000010729,1.270906159334e-05,24.97064834269,-0.005454290192574,-3.0141571014090203
12,0.2150000035763,9.229684110323e-06,24.97065182207,-0.006224520038813,-3.4398025435821014
13,0.3154999911785,9.31737395149e-06,24.97065173438,-0.005907706450671,-3.26472459708391
14,0.3904999941587,0.01005164626986,24.96060940548,0.02768275886774,15.298083028547989
15,0.4015000015497,0.02021018415689,24.95045086759,0.01640255004168,9.06439902238037
16,0.4099999964237,0.03035727888346,24.94030377287,0.01095206197351,6.052343056016997
17,0.417999997735,0.040805734694,24.92985531706,0.01154769491404,6.381502523911825
18,0.4254999905825,0.05121604353189,24.91944500822,0.009661446325481,5.339121319851841
19,0.4329999983311,0.06183997541666,24.90882107633,0.008091694675386,4.47164307492379
20,0.4404999911785,0.07199469953775,24.89866635221,-0.008626216091216,-4.767031010749564
21,0.4494999945164,0.08209601789713,24.88856503385,0.006314284168184,3.4894081161575703
22,0.4594999998808,0.09234610944986,24.8783149423,0.0206804331392,11.42844847008723
23,0.4689999967813,0.102458871901,24.86820217985,0.02893353067338,15.989286207532647
24,0.4780000001192,0.1127890720963,24.85787197965,0.03667355328798,20.266587800437666
25,0.4860000014305,0.1230162754655,24.84764477629,0.03636539727449,20.096294214359798
26,0.493499994278,0.1331137865782,24.83754726517,0.03222788125277,17.809814606795037
27,0.5010000020266,0.143134996295,24.82752605546,0.02849805913866,15.74863534876007
28,0.5090000033379,0.153274461627,24.81738659012,0.02893832884729,15.991937780781228
29,0.5174999982119,0.1632765978575,24.80738445389,0.0293605979532,16.22529269578321
30,0.5269999951124,0.173351213336,24.79730983842,0.02744216285646,15.165124540758386
31,0.5384999960661,0.1835498064756,24.78711124528,0.04017037898302,22.19900826743895
32,0.5504999905825,0.1936740130186,24.77698703873,0.05457086116076,30.157021883737777
33,0.5614999979734,0.2041300982237,24.76653095353,0.0576976314187,31.88494182284844
34,0.5715000033379,0.2145785540342,24.75608249772,0.05461559444666,30.181742451695165
35,0.5810000002384,0.2247523516417,24.74590870011,0.05332819372416,29.470297351952276
36,0.5909999907017,0.2351931780577,24.73546787369,0.05097214132547,28.168292541413972
37,0.6014999896288,0.2454188615084,24.72524219024,0.05513080209494,30.466457187606668
38,0.6124999970198,0.2557090222836,24.71495202947,0.0636852607131,35.19383348814566
39,0.6229999959469,0.2657187879086,24.70494226384,0.0710037574172,39.23819087168475
40,0.6330000013113,0.2757590711117,24.69490198064,0.07322319597006,40.46469995701944
41,0.6429999917746,0.2860625684261,24.68459848333,0.07480343431234,41.33797337173196
42,0.652999997139,0.2963469922543,24.6743140595,0.07644923776388,42.24747946433715
43,0.6630000025034,0.3064139783382,24.66424707341,0.07912715524435,43.727353784507265
44,0.6735000014305,0.3168090283871,24.65385202336,0.08319648355246,45.97615140707492
45,0.6840000003576,0.327177375555,24.6434836762,0.08849319070578,48.90322475971757
46,0.6944999992847,0.3376639783382,24.63299707341,0.09151109308004,50.57098198413509
47,0.704499989748,0.3477691113949,24.62289194036,0.09413608163595,52.02160665160985
48,0.7144999951124,0.3579314649105,24.61272958684,0.09638794511557,53.26603444310165
49,0.7245000004768,0.3679526746273,24.60270837712,0.09796007722616,54.13482818127489
50,0.734999999404,0.3782504498959,24.59241060186,0.1028371676803,56.83001239545086
51,0.7454999983311,0.3884833753109,24.58217767644,0.1082101687789,59.799247409618815
52,0.7559999972582,0.3988746106625,24.57178644109,0.11272867769,62.29627181450196
53,0.7660000026226,0.4089301526546,24.5617308991,0.1143355593085,63.184268871959524
54,0.7759999930859,0.419031471014,24.55162958074,0.1168215498328,64.55808026231355
55,0.7859999984503,0.4291022717953,24.54155877996,0.1196210607886,66.10514973056176
56,0.7960000038147,0.4391425549984,24.53151849675,0.1228101477027,67.86750718309194
57,0.8065000027418,0.4496100842953,24.52105096746,0.1263411194086,69.81879746403501
58,0.8170000016689,0.4599975049496,24.5106635468,0.1316807419062,72.76958675131881
59,0.827500000596,0.4704764783382,24.50018457341,0.1367008835077,75.54382408083266
60,0.8374999910593,0.4805892407894,24.49007181096,0.1379530131817,76.23577764683664
61,0.8474999964237,0.4907020032406,24.47995904851,0.1392774283886,76.96767774018458
62,0.8579999953508,0.5011069774628,24.46955407429,0.1424186676741,78.70359357255188
63,0.868499994278,0.5112693309784,24.45939172077,0.1475732773542,81.55214083052844
64,0.8789999932051,0.5214812755585,24.44917977619,0.1533782929182,84.76011625322283
65,0.8889999985695,0.5315215587616,24.43913949299,0.1573641747236,86.96279955846401
66,0.8990000039339,0.5418059825897,24.42885506916,0.1595755070448,88.184828967276
67,0.9089999943972,0.5521819591522,24.4184790926,0.1609949320555,88.96923350478006
68,0.9189999997616,0.5624930858612,24.40816796589,0.1627153605223,89.91997897258297
69,0.9289999902248,0.5725104808807,24.39815057087,0.1656665056944,91.55084474314371
70,0.9395000040531,0.5827414989471,24.3879195528,0.1720427721739,95.07450560662836
71,0.9500000029802,0.5930068492889,24.37765420246,0.1777581423521,98.23294107697745
72,0.9605000019073,0.6034820079803,24.36717904377,0.1814994066954,100.30044355492763
73,0.9704999923706,0.6135756969452,24.35708535481,0.1842989176512,101.84751302317584
74,0.980499997735,0.6237609386444,24.34690011311,0.1855660974979,102.54778363563673
75,0.9905000030994,0.6339004039764,24.33676064777,0.1881841719151,103.99458740258052
76,1.000499993563,0.6439940929413,24.32666695881,0.1920990049839,106.15800766049419
77,1.010499998927,0.6541411876678,24.31651986408,0.1958946287632,108.25555032227452
78,1.020500004292,0.6643073558807,24.30635369587,0.1990307867527,109.98865812208724
79,1.030499994755,0.6743514537811,24.29630959797,0.2044381201267,112.97686588395487
80,1.040999993682,0.6847655773163,24.28589547443,0.2098015844822,115.94083069046532
81,1.051499992609,0.6951072216034,24.27555383015,0.2154387533665,119.05605045775759
82,1.061999991536,0.7055327892303,24.26512826252,0.2211197912693,122.19551318040702
83,1.071999996901,0.715710401535,24.25495065022,0.2267188131809,125.28965211690345
84,1.082000002265,0.7260940074921,24.24456704426,0.2292610704899,126.69455773266334
85,1.091999992728,0.7364737987518,24.234187253,0.2321631014347,128.2982819336028
86,1.101999998093,0.7466125488281,24.22404850292,0.2341266423464,129.38337652408967
87,1.11249999702,0.7569580078125,24.21370304394,0.2384343892336,131.76392933897372
88,1.122999995947,0.7672424316406,24.20341862011,0.2437387257814,134.69521885774236
89,1.133499994874,0.7777290344238,24.19293201733,0.2472286969423,136.62385136296945
90,1.143500000238,0.787841796875,24.18281925488,0.2495475560427,137.9053023635329
91,1.153499990702,0.797966003418,24.17269504833,0.2533355653286,139.99863709384192
92,1.163499996066,0.808032989502,24.16262806225,0.256637185812,141.82318299712858
93,1.173999994993,0.8183517456055,24.15230930615,0.2611509263515,144.31757229815534
94,1.18449999392,0.828519821167,24.14214123058,0.2664018571377,147.2193486539093
95,1.194999992847,0.8388252258301,24.13183582592,0.2707935273647,149.6462792964668
96,1.205499991775,0.8493156433105,24.12134540844,0.2749668061733,151.95252218288812
97,1.215499997139,0.8594093322754,24.11125171948,0.2775176465511,153.3621709855453
98,1.225500002503,0.8695068359375,24.10115421581,0.2798438072205,154.64765698888198
99,1.236000001431,0.8799209594727,24.09074009228,0.2847623825073,157.36576660646483
100,1.246500000358,0.8901519775391,24.08050907421,0.2911062240601,160.87150876382552
101,1.256999999285,0.9004135131836,24.07024753857,0.2960357666016,163.5956791202891
102,1.267499998212,0.9109077453613,24.05975330639,0.3005180358887,166.07267673595214
103,1.277500003576,0.9210739135742,24.04958713818,0.3041894435883,168.1015749425389
104,1.28749999404,0.9312896728516,24.0393713789,0.3083264827728,170.38779103968486
105,1.297499999404,0.9415016174316,24.02915943432,0.312034368515,172.43684779069557
106,1.307499989867,0.9516296386719,24.01903141308,0.3160238265991,174.64150742382904
107,1.318000003695,0.9621124267578,24.00854862499,0.3208508491516,177.30902304760139
108,1.328500002623,0.9725189208984,23.99814213085,0.3254370689392,179.8434659271236
109,1.33900000155,0.982982635498,23.98767841625,0.328782081604,181.69199127541498
110,1.348999992013,0.9930000305176,23.97766102123,0.3334693908691,184.28229835646047
111,1.358999997377,1.003078579903,23.96758247185,0.3382541835308,186.92647684180554
112,1.369000002742,1.013240933418,23.95742011833,0.3433439433575,189.73918668753421
113,1.378999993205,1.02346432209,23.94719672966,0.3478071391582,192.20564388777169
114,1.388999998569,1.033683896065,23.93697715569,0.3503017127514,193.58419846507826
115,1.399000003934,1.043815732002,23.92684531975,0.3540963828564,195.68121410609837
116,1.408999994397,1.053897976875,23.91676307488,0.3573352992535,197.4711083938062
117,1.419499993324,1.064334988594,23.90632606316,0.3625147044659,200.3333581918249
118,1.429999992251,1.074741482735,23.89591956902,0.3676063716412,203.14712207907402
119,1.440499991179,1.085228085518,23.88543296623,0.373022288084,206.14007302783892
120,1.450499996543,1.095253109932,23.87540794182,0.3765175044537,208.07160414733013
121,1.460500001907,1.105278134346,23.86538291741,0.3812105357647,210.66507335299224
122,1.470499992371,1.115333676338,23.85532737541,0.3836100995541,211.9911234861427
123,1.480499997735,1.125385403633,23.84527564812,0.3882201611996,214.53874188489158
124,1.490500003099,1.13544857502,23.83521247673,0.3936274945736,217.52694964675922
125,1.500499993563,1.145549893379,23.82511115837,0.3975184857845,219.6771943854462
126,1.510499998927,1.155609250069,23.81505180168,0.4010823667049,221.64667100028146
127,1.520999997854,1.166057705879,23.80460334587,0.4060500562191,224.39192218754087
128,1.531499996781,1.176433682442,23.79422736931,0.4100984036922,226.629125353157
129,1.541999995708,1.186794400215,23.78386665154,0.4134851396084,228.50070786013646
130,1.552499994636,1.197227597237,23.77343345451,0.4182659089565,231.1426629765682
131,1.5625,1.207283139229,23.76337791252,0.4224039018154,233.42940609452964
132,1.572499990463,1.217361569405,23.75329948235,0.4265552461147,235.72352750324478
133,1.583000004292,1.227806210518,23.74285484123,0.4309740960598,238.16547823777262
134,1.593500003219,1.23814022541,23.73252082634,0.436782926321,241.37556174350792
135,1.604000002146,1.248539805412,23.72212124634,0.4425428807735,244.55863543482576
136,1.613999992609,1.258583903313,23.71207714844,0.4469440877438,246.9908362851513
137,1.623999997973,1.268822550774,23.70183850098,0.4519041478634,249.73187130621835
138,1.634000003338,1.279183268547,23.6914777832,0.4547179639339,251.28684608598047
139,1.643999993801,1.28947532177,23.68118572998,0.4581893384457,253.20520168624498
140,1.653999999166,1.299496531487,23.67116452026,0.4628146588802,255.76125241726803
141,1.664499998093,1.309761881828,23.66089916992,0.4683316648006,258.81006756761144
142,1.67499999702,1.319994807243,23.65066624451,0.4728835523129,261.3255376994893
143,1.685499995947,1.330397486687,23.64026356506,0.4780991971493,264.2078142867281
144,1.695500001311,1.340548396111,23.63011265564,0.4825223386288,266.6521366147046
145,1.705499991775,1.350851893425,23.61980915833,0.4861396253109,268.6511263926098
146,1.715499997139,1.361143946648,23.6095171051,0.4898270070553,270.68885219708227
147,1.725500002503,1.371264338493,23.59939671326,0.4933217465878,272.6201198061657
148,1.736000001431,1.381638407707,23.58902264404,0.4977010190487,275.0401991787298
149,1.746500000358,1.391877055168,23.57878399658,0.502718269825,277.81283897657624
150,1.756999999285,1.402123332024,23.56853771973,0.5086081624031,281.06771924770436
151,1.767499998212,1.412575602531,23.55808544922,0.5143130421638,284.2203574895804
152,1.777500003576,1.422787547112,23.54787350464,0.5188019871712,286.7010442506755
153,1.78749999404,1.433106303215,23.53755474854,0.5217342972755,288.3215013610146
154,1.797499999404,1.443302989006,23.52735806275,0.5250855088234,290.1734523443303
155,1.807499989867,1.453347086906,23.51731396484,0.527682363987,291.6085298991243
156,1.818000003695,1.463673472404,23.50698757935,0.5322495102882,294.13243236322097
157,1.828500002623,1.473833918571,23.49682713318,0.5375347733498,297.05318146667463
158,1.83900000155,1.484043955803,23.48661709595,0.5445271134377,300.9172977471222
159,1.849500000477,1.494419932365,23.47624111939,0.5500603318214,303.9750722505
160,1.85949999094,1.504436135292,23.46622491646,0.5548539757729,306.6241421473881
161,1.869499996305,1.514449715614,23.45621133614,0.5579498410225,308.3349833196807
162,1.879500001669,1.524467110634,23.44619394112,0.5617416501045,310.43041789836485
163,1.890000000596,1.534942269325,23.43571878243,0.566336452961,312.9696039648397
164,1.900499999523,1.545348763466,23.42531228829,0.5714891552925,315.81709718129576
165,1.91099999845,1.555698037148,23.4149630146,0.5781105160713,319.4762023824792
166,1.921499997377,1.566142678261,23.40451837349,0.5845316052437,323.02463322213646
167,1.931500002742,1.576228737831,23.39443231392,0.5911291241646,326.67056290409323
168,1.941499993205,1.586459755898,23.38420129585,0.5954740643501,329.0716695289576
169,1.951499998569,1.596744179726,23.37391687203,0.5982964634895,330.6313874956723
170,1.961500003934,1.606929421425,23.36373163033,0.6015451550484,332.42668374629676
171,1.972000002861,1.617419838905,23.35324121285,0.6066177487373,335.22990721812033
172,1.982500001788,1.627595543861,23.34306550789,0.6110799908638,337.69583739765284
173,1.993000000715,1.637666344643,23.33299470711,0.6182592511177,341.66324974887283
174,2.003499999642,1.648038506508,23.32262254524,0.6254919171333,345.6601752631628
175,2.013499990106,1.658258080482,23.31240297127,0.6282485127449,347.1835287968141
176,2.02349999547,1.668603539467,23.30205751228,0.6293135881424,347.7721121797227
177,2.033500000834,1.67881166935,23.2918493824,0.6332494020462,349.9471268945823
178,2.043999999762,1.68924677372,23.28141427803,0.6382886171341,352.73190463952176
179,2.054499998689,1.699496865273,23.27116418648,0.6440478563309,355.91458306528324
180,2.064999997616,1.709781289101,23.26087976265,0.6501647233963,359.29489427950006
181,2.075499996543,1.720264077187,23.25039697456,0.6566611528397,362.88495975993345
182,2.085500001907,1.730460762978,23.24020028877,0.6617985963821,365.72402064406026
183,2.095499992371,1.740691781044,23.22996927071,0.6652857065201,367.6510720870066
184,2.105499997735,1.750809192657,23.21985185909,0.6690299510956,369.7202215048394
185,2.115999996662,1.761253833771,23.20940721798,0.6751725673676,373.11476227985855
186,2.126499995589,1.771618366241,23.19904268551,0.6809089183807,376.28479220709835
187,2.136999994516,1.781937122345,23.18872392941,0.6848104000092,378.4408341743136
188,2.147499993443,1.792202472687,23.17845857906,0.6889989376068,380.75550939300905
189,2.157999992371,1.802389621735,23.16827143002,0.6936700344086,383.3368571210202
190,2.168499991298,1.812565326691,23.15809572506,0.6984345912933,385.9698528843623
191,2.178999990225,1.822937488556,23.1477235632,0.7040603160858,389.07874840242135
192,2.188999995589,1.833115100861,23.13754595089,0.7083165645599,391.4308420957559
193,2.199000000954,1.843472003937,23.12718904781,0.7123997211456,393.6872815194795
194,2.208999991417,1.853729724884,23.11693132687,0.7169668674469,396.2111839836314
195,2.219499990344,1.864220142365,23.10644090939,0.7223551273346,399.1888513301287
196,2.230000004172,1.874449253082,23.09621179867,0.7274467945099,402.00261521737787
197,2.240500003099,1.884560108185,23.08610094357,0.7340404987335,405.6464368162384
198,2.251000002027,1.894749164581,23.07591188717,0.7389199733734,408.34293858232047
199,2.261500000954,1.905136585236,23.06552446652,0.74334025383,410.7856798480163
200,2.271999999881,1.915627002716,23.05503404904,0.7495000362396,414.18970699683
201,2.282499998808,1.926083087921,23.04457796383,0.7558047771454,417.6738413026346
202,2.292999997735,1.936516284943,23.03414476681,0.7618272304535,421.00197746070495
203,2.303499996662,1.946979999542,23.02368105221,0.7672736644745,424.0117930741286
204,2.313999995589,1.957478046417,23.01318300533,0.7722623348236,426.76863871827874
205,2.324000000954,1.967575550079,23.00308550167,0.7759053707123,428.7818580569864
206,2.333999991417,1.977711200714,22.99294985104,0.7791583538055,430.5795259010042
207,2.343999996781,1.987732410431,22.98292864132,0.784069776535,433.29368286285774
208,2.354499995708,1.998224258423,22.97243679333,0.7895040512085,436.29677896149184
209,2.364500001073,2.008241653442,22.96241939831,0.7947950363159,439.2206901895068
210,2.374499991536,2.018262863159,22.95239818859,0.7992715835571,441.6945256805532
211,2.384999990463,2.028707504272,22.94195354748,0.8048362731934,444.7696918694053
212,2.395500004292,2.039167404175,22.93149364758,0.8093061447144,447.2398382150748
213,2.406000003219,2.049589157104,22.92107189465,0.814658164978,450.19747877229685
214,2.416500002146,2.060018539429,22.91064251232,0.8206720352173,453.52087174346985
215,2.426499992609,2.070028305054,22.9006327467,0.8261890411377,456.5696868938133
216,2.436499997973,2.080167770386,22.89049328137,0.8306331634521,459.0256036786805
217,2.446500003338,2.090253829956,22.8804072218,0.8345975875854,461.2164290166232
218,2.457000002265,2.100637435913,22.87002361584,0.841103553772,464.8117647047694
219,2.467500001192,2.110971450806,22.85968960095,0.847580909729,468.39128976977736
220,2.478000000119,2.121412277222,22.84924877453,0.8531885147095,471.4901718932263
221,2.488499999046,2.131910324097,22.83875072765,0.8575477600098,473.89918382965993
222,2.498500004411,2.141988754272,22.82867229748,0.8630800247192,476.95643131227746
223,2.508499994874,2.152139663696,22.81852138805,0.8675966262817,479.4524016756401
224,2.518500000238,2.162279129028,22.80838192272,0.8715329170227,481.6276799009075
225,2.528499990702,2.172296524048,22.7983645277,0.8754949569702,483.817187686922
226,2.538999989629,2.182703018188,22.78795803356,0.8821153640747,487.4757658673452
227,2.549500003457,2.19309425354,22.77756679821,0.8872900009155,490.3353805615076
228,2.560000002384,2.20343208313,22.76722896862,0.8924617767334,493.1934141933892
229,2.570500001311,2.213785171509,22.75687588024,0.8994312286377,497.0448819753703
230,2.581000000238,2.224283218384,22.74637783337,0.9052038192749,500.23493869188553
231,2.590999990702,2.234407424927,22.73625362682,0.9095268249512,502.62392383909895
232,2.600999996066,2.244569778442,22.72609127331,0.9135036468506,504.8216004470351
233,2.611000001431,2.254671812057,22.71598923969,0.9174879789352,507.02342734350634
234,2.621500000358,2.265078306198,22.70558274555,0.9225643873215,509.82875889848134
235,2.631999999285,2.275284528732,22.69537652302,0.9299134016037,513.889980946624
236,2.642499998212,2.285464048386,22.68519700337,0.9371021986008,517.8626635055567
237,2.652999997139,2.295801877975,22.67485917378,0.9431933164597,521.2287451590263
238,2.663000002503,2.305834531784,22.66482651997,0.9481018781662,523.941321058544
