,time,travel,position,force,stress
0,0.0,0.0,26.20450232865,-0.0175666641444,-8.946628583092545
1,0.0,0.0,26.20450606884,-0.01754705421627,-8.936641328706733
2,0.0,0.0,26.20452518703,-0.01735096052289,-8.836771630752898
3,0.0,0.0,26.20452743711,-0.01642112806439,-8.363211848296691
4,0.0,0.0,26.20452792885,-0.01634244993329,-8.323141405167739
5,0.0,0.0,26.33098418137,-0.01924863830209,-9.803250987409955
6,0.0,0.0,26.33097724558,-0.01909390464425,-9.72444578258459
7,0.008000001311302,5.543697625399e-06,26.33097170188,-0.01953544095159,-9.94931837736124
8,0.01100000739098,7.697381079197e-07,26.33097647584,-0.01969899609685,-10.032616328837216
9,0.01300001144409,4.390720278025e-06,26.33097285486,-0.01990522816777,-10.137649460072405
10,0.01399999856949,4.278961569071e-06,26.33097296662,-0.02005447819829,-10.2136618764368
11,0.1140000075102,-2.620045597723e-05,26.33100344604,-0.01847133971751,-9.407376069028384
12,0.2145000100136,1.198839214567e-07,26.3309771257,-0.02019825950265,-10.286889093438704
13,0.315000012517,-3.070273305639e-05,26.33100794832,-0.01881135813892,-9.58054602905944
14,0.4155000001192,1.17694958135e-06,26.33097606863,-0.01952860690653,-9.945837826792884
15,0.5015000104904,0.01003926247358,26.32093798311,0.01001881062984,5.102538354050116
16,0.5125000029802,0.02006810158491,26.310909144,0.01882414519787,9.587058424705837
17,0.5200000107288,0.03044026345015,26.30053698213,0.0112976282835,5.753834836908255
18,0.5265000015497,0.04119389504194,26.28978335054,-0.003068521386012,-1.5627851090144116
19,0.5324999988079,0.05176442116499,26.27921282442,-0.01390989124775,-7.084249439840333
20,0.5385000109673,0.06245701760054,26.26852022798,-0.01986272633076,-10.116003452230396
21,0.5445000082254,0.07289784401655,26.25807940157,-0.02778203785419,-14.149275691713571
22,0.5509999990463,0.08333867043257,26.24763857515,-0.04091985523701,-20.84031114103975
23,0.5585000067949,0.09354298561811,26.23743425996,-0.04154701530933,-21.159721143022463
24,0.5685000121593,0.1037511155009,26.22722613008,-0.04106850922108,-20.91601999343989
25,0.5825000107288,0.1140012070537,26.21697603853,-0.008754208683968,-4.458481871716809
26,0.5945000052452,0.1241883561015,26.20678888948,-0.005467429291457,-2.7845388727705616
27,0.6045000106096,0.1342515200377,26.19672572554,-0.01106072962284,-5.6331833397694115
28,0.6140000075102,0.144519969821,26.18645727576,-0.01549059245735,-7.889293955229704
29,0.6235000044107,0.1549073904753,26.17606985511,-0.01854807324708,-9.446456134730635
30,0.6330000013113,0.1649247854948,26.16605246009,-0.02302080579102,-11.72440011391796
31,0.6435000002384,0.1750852316618,26.15589201392,-0.02002209611237,-10.197169815503058
32,0.6545000076294,0.1853028982878,26.14567434729,-0.0149618992582,-7.620032719953574
33,0.6650000065565,0.1953622549772,26.1356149906,-0.01237195823342,-6.300986587440851
34,0.6750000119209,0.205497905612,26.12547933997,-0.01354230660945,-6.897040120832041
35,0.6850000023842,0.2159997671843,26.1149774784,-0.01511688251048,-7.698965042183399
36,0.6944999992847,0.2260209769011,26.10495626868,-0.0173484813422,-8.835508994395676
37,0.7045000046492,0.2362901419401,26.09468710364,-0.01752291433513,-8.924346988197671
38,0.7150000035763,0.2467023581266,26.08427488746,-0.01586518995464,-8.080074893993084
39,0.7255000025034,0.2569333612919,26.07404388429,-0.01421437878162,-7.239323667441202
40,0.7360000014305,0.2672845423222,26.06369270326,-0.01141057629138,-5.811358784961005
41,0.7460000067949,0.2774278223515,26.05354942323,-0.01052559632808,-5.360642190732272
42,0.7560000121593,0.2878381311893,26.04313911439,-0.0113975526765,-5.804725912368758
43,0.7660000026226,0.2982675135136,26.03270973207,-0.01205391902477,-6.139010548549068
44,0.776000007987,0.3084832727909,26.02249397279,-0.01146037597209,-5.836721554079068
45,0.7865000069141,0.3189202845097,26.01205696107,-0.01060206908733,-5.399589447201116
46,0.7970000058413,0.3290921747684,26.00188507081,-0.007197929080576,-3.6658751782354297
47,0.8075000047684,0.3392774164677,25.99169982911,-0.004767013248056,-2.427819911080524
48,0.8180000036955,0.3497754633427,25.98120178224,-0.002915983321145,-1.4850981105079948
49,0.8280000090599,0.3600369989872,25.97094024659,-0.00122745835688,-0.6251394077981048
50,0.8379999995232,0.3704625666142,25.96051467897,-7.232020379888e-06,-0.003683237734401606
51,0.8480000048876,0.3808881342411,25.95008911134,0.000124188765767,0.06324881903455873
52,0.858000010252,0.3911458551884,25.93983139039,0.002286645350978,1.164578914260002
53,0.8680000007153,0.4011478126049,25.92982943298,0.004163540899754,2.120473967875605
54,0.8784999996424,0.4115085303783,25.9194687152,0.006122149527073,3.1179851506604073
55,0.8889999985695,0.4218539893627,25.90912325622,0.008176364004612,4.164187993128461
56,0.8995000123978,0.4321956336498,25.89878161193,0.01143173128366,5.82213293405679
57,0.9100000113249,0.4426212012768,25.88835604431,0.01384118944407,7.04925989854433
58,0.9200000017881,0.4526843726635,25.87829287292,0.01612619310617,8.213002707524483
59,0.9300000071526,0.4628619849682,25.86811526061,0.01860288530588,9.47437168704764
60,0.940000012517,0.4730395972729,25.85793764831,0.02103578299284,10.713436304380512
61,0.9500000029802,0.4832286536694,25.84774859191,0.02371656149626,12.078745584872628
62,0.9600000083447,0.4933490455151,25.83762820007,0.02657853811979,13.536338310147034
63,0.9705000072718,0.5037822127342,25.82719503285,0.03061734884977,15.593287724191525
64,0.9810000061989,0.5140380263329,25.81693921925,0.03518640249968,17.9202876398243
65,0.991500005126,0.5242728590965,25.80670438649,0.03919469565153,19.961694578954926
66,1.002000004053,0.5345343947411,25.79644285084,0.04177867621183,21.27770507183528
67,1.01250000298,0.5449160933495,25.78606115223,0.04445564001799,22.641071542966348
68,1.022500008345,0.5550364851952,25.77594076039,0.04604845494032,23.452285521588273
69,1.032499998808,0.5652369856834,25.7657402599,0.04652600735426,23.69550096883313
70,1.042500004172,0.575326859951,25.75565038563,0.0483520552516,24.625499526222647
71,1.053000003099,0.5857638716698,25.74521337391,0.05268650501966,26.833016665967502
72,1.063500002027,0.5961055159569,25.73487172963,0.05761175602674,29.34142640595188
73,1.074000000954,0.606504380703,25.72447286488,0.06246405094862,31.812679916853973
74,1.084000006318,0.6165561079979,25.71442113758,0.06599455326796,33.61074998315913
75,1.094000011683,0.6267947554588,25.70418249012,0.06883745640516,35.05862866161301
76,1.104000002146,0.6370715498924,25.69390569569,0.06949899345636,35.39554671517114
77,1.11400000751,0.6472100019455,25.68376724364,0.07129281759262,36.309133845805796
78,1.124500006437,0.6575840711594,25.67339317442,0.07486242055893,38.12711770808973
79,1.135000005364,0.6678627729416,25.66311447264,0.08031743764877,40.90533509848589
80,1.145500004292,0.6783035993576,25.65267364622,0.08445447683334,43.01231185365126
81,1.155500009656,0.6884583234787,25.6425189221,0.08877176046371,45.211086351261216
82,1.165500000119,0.6987236738205,25.63225357176,0.09118074178696,46.437970464577354
83,1.175500005484,0.708985209465,25.62199203612,0.09376233816147,47.75276670160577
84,1.185500010848,0.719109416008,25.61186782957,0.09680360555649,49.30167146698703
85,1.196000009775,0.7295731306076,25.60140411497,0.1005768179893,51.22335277904306
86,1.206500008702,0.7399491071701,25.59102813841,0.1051725745201,53.56395236023884
87,1.217000007629,0.7504013776779,25.5805758679,0.1097111105919,55.87540980096794
88,1.226999998093,0.7604607343674,25.57051651121,0.1137031912804,57.908559800316645
89,1.237000003457,0.7705620527267,25.56041519286,0.1171831488609,59.680887642514044
90,1.247000008821,0.7805985212326,25.55037872435,0.121463239193,61.86071974886139
91,1.257500007749,0.7910774946213,25.53989975096,0.1248592734337,63.590305785074946
92,1.268000006676,0.801499247551,25.52947799803,0.1290687918663,65.7341959181461
93,1.278500005603,0.8119705915451,25.51900665404,0.1314859241247,66.96523126864606
94,1.28900000453,0.8224610090256,25.50851623656,0.1340656131506,68.27905610100416
95,1.299500003457,0.8329476118088,25.49802963377,0.1384410709143,70.50745844142868
96,1.310000002384,0.8434265851974,25.48755066038,0.1421933025122,72.41845430200911
97,1.320500001311,0.8538483381271,25.47712890746,0.1469569057226,74.84453749517257
98,1.331000000238,0.8642166852951,25.46676056029,0.1523604243994,77.59652695917929
99,1.341499999166,0.8746231794357,25.45635406615,0.156271442771,79.58839225954202
100,1.351999998093,0.8850525617599,25.44592468382,0.1591081470251,81.03311387275747
101,1.362500011921,0.8955416083336,25.43543563725,0.1612450629473,82.12143621512516
102,1.372500002384,0.9055704474449,25.42540679814,0.1646935492754,83.87773588009135
103,1.382500007749,0.9155802130699,25.41539703251,0.169147208333,86.14596581245306
104,1.393000006676,0.9260401129723,25.40493713261,0.1733014136553,88.2616852097737
105,1.403500005603,0.9365038275719,25.39447341801,0.1777827292681,90.54400051003611
106,1.41400000453,0.9469408392906,25.38403640629,0.1829936057329,93.19787810112138
107,1.424500003457,0.9573778510094,25.37359939457,0.1867668181658,95.11955941322324
108,1.434500008821,0.9673952460289,25.36358199955,0.1897189170122,96.62305100970465
109,1.444499999285,0.9774240851402,25.35355316044,0.1942650824785,98.93839406914566
110,1.454500004649,0.9874681830406,25.34350906254,0.1983558684587,101.0218142607612
111,1.464500010014,0.9975847601891,25.33339248539,0.2020475417376,102.90196802273624
112,1.474500000477,1.007720470428,25.32325677515,0.2046334296465,104.21894992028183
113,1.484999999404,1.018187999725,25.31278924586,0.2083022147417,106.08744682601927
114,1.495499998331,1.028510570526,25.30246667506,0.2135960608721,108.78358052080668
115,1.506000012159,1.038852214813,25.29212503077,0.2187449485064,111.40588745976213
116,1.516500011086,1.049312114716,25.28166513087,0.2232625037432,113.7066594489698
117,1.52650000155,1.059356212616,25.27162103297,0.2280919104815,116.1662561036954
118,1.536500006914,1.069411754608,25.26156549097,0.2321898490191,118.25331906288201
119,1.546500012279,1.07942533493,25.25155191065,0.2356373816729,120.00913302551558
120,1.557000011206,1.08984708786,25.24113015772,0.239537909627,121.9956556001176
121,1.567500010133,1.100177288055,25.23079995753,0.2437278777361,124.12958883519174
122,1.57800000906,1.11056470871,25.22041253687,0.2474967986345,126.0490844867204
123,1.587999999523,1.120597362518,25.21037988306,0.2513487040997,128.01084383107005
124,1.598000004888,1.13077878952,25.20019845606,0.2544824779034,129.60686172352044
125,1.608000010252,1.140964031219,25.19001321436,0.2578503787518,131.32211954069243
126,1.618000000715,1.15098631382,25.17999093176,0.2624125480652,133.6456132925317
127,1.628499999642,1.161381363869,25.16959588171,0.2669267654419,135.94468532354972
128,1.638999998569,1.171734452248,25.15924279333,0.2709360122681,137.98657796503844
129,1.649500012398,1.182064652443,25.14891259314,0.2745790481567,139.8419609075404
130,1.660000011325,1.192375779152,25.13860146643,0.2789001464844,142.04267821454704
131,1.670500010252,1.202679276466,25.12829796912,0.2830934524536,144.17831140781084
132,1.681000009179,1.213017106056,25.11796013953,0.288311958313,146.8360746176589
133,1.691500008106,1.223423600197,25.10755364539,0.2925395965576,148.9891930952027
134,1.702000007033,1.233887314796,25.09708993079,0.296875,151.19719593730056
135,1.712000012398,1.243897080421,25.08708016516,0.2994803190231,152.52407402004525
136,1.722000002861,1.253964066505,25.07701317908,0.3031948804855,154.415884638156
137,1.732500001788,1.264439225197,25.06653802039,0.3071526288986,156.43154935322474
138,1.743000000715,1.27479994297,25.05617730261,0.3124808073044,159.14516833229212
139,1.753499999642,1.285187363625,25.04578988196,0.3173416852951,161.62079316424894
140,1.763500005007,1.295300126076,25.03567711951,0.3211208581924,163.54551011594242
141,1.773500010371,1.305473923683,25.0255033219,0.3244458436966,165.23891132778988
142,1.783500000834,1.315655350685,25.0153218949,0.3272429704666,166.66347629387042
143,1.793500006199,1.325775742531,25.00520150305,0.3306270837784,168.3869910508498
144,1.804000005126,1.336262345314,24.99471490027,0.3343812227249,170.29895831609548
145,1.814500004053,1.346554398537,24.98442284705,0.3393222093582,172.81538214470564
146,1.82500000298,1.356905579567,24.97407166602,0.3438674211502,175.13023950181403
147,1.835000008345,1.366976380348,24.96400086523,0.3470278978348,176.7398570598325
148,1.844999998808,1.377176880836,24.95380036475,0.3507863283157,178.65400998560045
149,1.855000004172,1.387335419655,24.94364182593,0.3551703691483,180.88678364712047
150,1.865000009537,1.397423863411,24.93355338217,0.3604654371738,183.58353964797217
151,1.875,1.407464146614,24.92351309897,0.3640932142735,185.43115135310126
152,1.885499998927,1.417878270149,24.91309897543,0.3695396482944,188.20499742238158
153,1.896000012755,1.428231358528,24.90274588705,0.3739122450352,190.43194265580823
154,1.906500011683,1.438660740852,24.89231650473,0.3787750303745,192.9085388924303
155,1.91700001061,1.449135899544,24.88184134604,0.3820876181126,194.5956259738518
156,1.927500009537,1.459580540657,24.87139670493,0.3874348700047,197.31895899972446
157,1.938000008464,1.470009922981,24.8609673226,0.3920945227146,199.69210063771527
158,1.948500007391,1.480454564095,24.85052268149,0.395610243082,201.48264231771708
159,1.959000006318,1.490899205208,24.84007804037,0.3994878828526,203.45750803618336
160,1.969500005245,1.501320958138,24.82965628744,0.4023493826389,204.91485791025073
161,1.980000004172,1.511704564095,24.81927268149,0.4063118994236,206.93295113703346
162,1.990500003099,1.522149205208,24.80882804037,0.4100231230259,208.8230617969546
163,2.000500008464,1.532200932503,24.79877631308,0.414172321558,210.93623125696533
164,2.010499998927,1.54229080677,24.78868643881,0.417567640543,212.66545301644214
165,2.020500004292,1.55239212513,24.77858512045,0.4220241606236,214.93514005585263
166,2.030500009656,1.562470555305,24.76850669028,0.4259909689426,216.95541894310674
167,2.041000008583,1.572880864143,24.75809638144,0.4296349585056,218.81128758799227
168,2.05150000751,1.583106160164,24.74787108542,0.4345425665379,221.31071183470598
169,2.062000006437,1.59336578846,24.73761145712,0.4399775564671,224.0787294759439
170,2.072500005364,1.6037722826,24.72720496298,0.44415178895,226.20464862240243
171,2.082500010729,1.613846898079,24.7171303475,0.448094278574,228.21254209999637
172,2.092500001192,1.624028325081,24.7069489205,0.4514712393284,229.93241408940466
173,2.102500006557,1.634148716927,24.69682852866,0.4548214972019,231.6386864132449
174,2.113000005484,1.644577622414,24.68639962317,0.4586219191551,233.5742254202424
175,2.123500004411,1.654852509499,24.67612473608,0.4629725813866,235.78999949981505
176,2.134000003338,1.665085434914,24.66589181067,0.4666666388512,237.6713675175962
177,2.144500002265,1.675446152687,24.6555310929,0.4717134833336,240.24170430604426
178,2.154500007629,1.685505509377,24.64547173621,0.4757499098778,242.2974394642419
179,2.164499998093,1.695644974709,24.63533227087,0.4786662459373,243.7827172229189
180,2.174500003457,1.705669999123,24.62530724646,0.4821047186852,245.53391701336707
181,2.185000002384,1.716015458107,24.61496178748,0.4880728125572,248.57344226317588
182,2.195500001311,1.726402878761,24.60457436682,0.4928292632103,250.99588268881922
183,2.205500006676,1.736424088478,24.5945531571,0.4958671927452,252.54308749600065
184,2.21550001204,1.746590256691,24.58438698889,0.4999412894249,254.61800789666793
185,2.225500002503,1.756886124611,24.57409112097,0.5030984282494,256.22592549649676
186,2.235500007868,1.767101883888,24.56387536169,0.5048968195915,257.1418386859652
187,2.246000006795,1.777573227882,24.5534040177,0.5099827647209,259.7320892704073
188,2.256500005722,1.787851929665,24.54312531592,0.5162035822868,262.9003256406021
189,2.267000004649,1.798113465309,24.53286378027,0.5214135050774,265.5537175294057
190,2.277500003576,1.80847799778,24.5224992478,0.5271908640862,268.4961023110601
191,2.287500008941,1.818533539772,24.51244370581,0.5320755839348,270.98386970153626
192,2.297499999404,1.828642487526,24.50233475806,0.5349423289299,272.4438909385094
193,2.307500004768,1.838717103004,24.49226014258,0.5375310778618,273.7623299431038
194,2.318000003695,1.849142670631,24.48183457495,0.5412132143974,275.63762668159984
195,2.328500002623,1.859472870827,24.47150437476,0.5465080142021,278.33424607871984
196,2.33900000155,1.869932770729,24.46104447485,0.5515844225883,280.9196396397339
197,2.349000006914,1.88008749485,24.45088975073,0.5556580424309,282.9943171892603
198,2.359000012279,1.890276551247,24.44070069434,0.5601231455803,285.26837554971536
199,2.369000002742,1.900389194489,24.43058805109,0.5634078383446,286.9412558376402
200,2.379500001669,1.910871982574,24.42010526301,0.5664786696434,288.5052173755773
201,2.390000000596,1.921165943146,24.40981130244,0.5706529021263,290.63113652203583
202,2.400499999523,1.931438922882,24.3995383227,0.5756720900536,293.1873879426341
203,2.41099999845,1.94189119339,24.38908605219,0.5802134871483,295.50030249036104
204,2.421000003815,1.951996326447,24.37898091914,0.5847777724266,297.8248738942747
205,2.431000009179,1.962162494659,24.36881475092,0.5884880423546,299.7144988518632
206,2.440999999642,1.972301959991,24.35867528559,0.5920357108116,301.521311560288
207,2.451000005007,1.982323169708,24.34865407587,0.5962466597557,303.66593024688353
208,2.461500003934,1.992733478546,24.33824376704,0.6003083586693,305.73453651712487
209,2.472000002861,2.003174304962,24.32780294062,0.6051225066185,308.1863619343757
210,2.482000008225,2.013218402863,24.31775884272,0.6094245314598,310.37736519452625
211,2.491999998689,2.023388385773,24.30758885981,0.6131972670555,312.2988036554363
212,2.502000004053,2.033649921417,24.29732732416,0.6173300147057,314.4035947500947
213,2.512000009418,2.043919086456,24.28705815913,0.62132781744,316.4396589634391
214,2.521999999881,2.054142475128,24.27683477045,0.624851167202,318.2340862622038
215,2.532000005245,2.06432390213,24.26665334345,0.6288213133812,320.2560651076984
216,2.54200001061,2.074467182159,24.25651006342,0.6325845122337,322.17264654518044
217,2.552000001073,2.084568500519,24.24640874506,0.6363629698753,324.0969992201372
218,2.562000006437,2.094654560089,24.23632268549,0.6405476927757,326.22826109235643
219,2.572000011802,2.104710102081,24.2262671435,0.6452187895775,328.6072311584915
220,2.582500010729,2.115185260773,24.21579198481,0.6496667265892,330.87254687680655
221,2.593000009656,2.125538349152,24.20543889643,0.6541814208031,333.1718617590164
222,2.603500008583,2.135817050934,24.19516019465,0.6590976119041,335.6756573267237
223,2.61400000751,2.146189451218,24.18478779436,0.6639185547829,338.1309433732027
224,2.624000012875,2.156279325485,24.1746979201,0.6672058701515,339.8051593425296
225,2.634000003338,2.166487455368,24.16448979021,0.6699100136757,341.1823683303899
226,2.644000008702,2.176577329636,24.15439991595,0.6735802292824,343.0515937896518
227,2.654500007629,2.186972379684,24.1440048659,0.677979528904,345.2921386885956
228,2.665000006557,2.197157621384,24.1338196242,0.6836777329445,348.1942101759293
229,2.675500005484,2.207224607468,24.12375263811,0.6895352005959,351.1773939542371
230,2.686000004411,2.21747469902,24.11350254656,0.6950321793556,353.97698224760484
231,2.696000009775,2.227507352829,24.10346989275,0.6986842751503,355.836979362394
232,2.706000000238,2.237723112106,24.09325413348,0.7023392319679,357.69843358418115
233,2.716000005603,2.247950315475,24.08302693011,0.7055960297585,359.3571070786603
234,2.726000010967,2.258051633835,24.07292561175,0.7082372307777,360.7022597119564
235,2.736500009894,2.268419981003,24.06255726458,0.7113180756569,362.2713211245133
236,2.747000008821,2.278671979904,24.05230526568,0.7158060669899,364.557036341155
237,2.757500007749,2.288969755173,24.04200749041,0.7206183075905,367.00789035374066
238,2.768000006676,2.299467802048,24.03150944353,0.7261763215065,369.8385635969565
