,time,travel,position,force,stress
0,0.0,0.0,26.20104107238,0.004068831913173,2.2485233041372794
1,0.0,0.0,26.20104017831,0.004075059201568,2.25196463653354
2,0.0,0.0,26.2010349629,0.004003354813904,2.2123392624429044
3,0.0,0.0,26.20103372611,0.003792533185333,2.0958347336312437
4,0.0,0.0,26.20103073098,0.003961810376495,2.189380920180355
5,0.0,0.0,26.43746258505,0.001938214409165,1.0710986249671777
6,0.0,0.0,26.43746182297,0.001988997450098,1.099162416598167
7,0.008000001311302,1.105945557356e-05,26.43745076351,0.001454820740037,0.8039649725329785
8,0.01099999248981,7.553026080132e-06,26.43745426994,0.001358559238724,0.7507688136322461
9,0.01299999654293,8.171424269676e-06,26.43745365154,0.001350153121166,0.746123413765693
10,0.01399999856949,1.235865056515e-05,26.43744946432,0.001331705483608,0.7359288557597091
11,0.1145000010729,2.399096410954e-05,26.437437832,0.001126091810875,0.6223023544307639
12,0.2145000100136,2.773389132926e-05,26.43743408908,0.003307596081868,1.827848146460686
13,0.3149999976158,3.665422991617e-05,26.43742516874,0.001793888630345,0.991341121096377
14,0.4150000065565,2.228108496638e-05,26.43743954188,0.002583725145087,1.427821626497988
15,0.480499997735,0.01053341012448,26.42692841284,0.07432445883751,41.07328130770772
16,0.4864999949932,0.02124126628041,26.41622055669,0.1485126912594,82.07128099240983
17,0.4899999946356,0.03154857829213,26.40591324468,0.1822651326656,100.72360005913306
18,0.4930000007153,0.04322155192494,26.39424027104,0.1947391927242,107.61703172146422
19,0.4954999983311,0.05494030192494,26.38252152104,0.1959284245968,108.27422662079309
20,0.4975000023842,0.06560619175434,26.37185563121,0.193210452795,106.77221742829012
21,0.4995000064373,0.0773402005434,26.36012162242,0.1893003880978,104.61143227423285
22,0.5014999955893,0.09009654819965,26.34736527477,0.1854933202267,102.5075653632193
23,0.5030000060797,0.1003199368715,26.3371418861,0.1830480992794,101.1562841107379
24,0.5045000016689,0.1110468655825,26.32641495739,0.1811598241329,100.11278298753287
25,0.5059999972582,0.1222773343325,26.31518448864,0.1798094213009,99.36652157823394
26,0.5074999928474,0.1339960843325,26.30346573864,0.178995937109,98.9169728620256
27,0.5090000033379,0.1462031155825,26.29125870739,0.1788512170315,98.83699746029377
28,0.5104999989271,0.1588373929262,26.27862443004,0.1795760095119,99.23753324491702
29,0.5119999945164,0.1719294339418,26.26553238903,0.1812849938869,100.18195446348669
30,0.5135000050068,0.1854487210512,26.25201310192,0.1837874352932,101.56485696213417
31,0.515000000596,0.1993952542543,26.23806656871,0.1868925988674,103.28083658693566
32,0.5164999961853,0.2137385159731,26.22372330699,0.1905852258205,105.32146100561701
33,0.5180000066757,0.2285090237856,26.20895279918,0.1946974694729,107.59397456283136
34,0.5189999938011,0.2385493069887,26.19891251598,0.1974821984768,109.13287520915794
35,0.5199999958277,0.2488032132387,26.18865860973,0.2000227868557,110.53685853854599
36,0.5209999978542,0.2592402398586,26.17822158311,0.2018576562405,111.55084649868108
37,0.5219999998808,0.269829839468,26.1676319835,0.2025395333767,111.92766634870738
38,0.5230000019073,0.2806025445461,26.15685927842,0.2018757760525,111.56085989329114
39,0.5240000039339,0.2915278375149,26.14593398545,0.2000370919704,110.5447638500599
40,0.5250000059605,0.3026057183743,26.13485610459,0.1972981393337,109.03116020066618
41,0.5259999930859,0.3138361871243,26.12362563584,0.1937733590603,107.08329143738698
42,0.5269999951124,0.3251582086086,26.11230361436,0.1894246041775,104.68007672942645
43,0.527999997139,0.3366328179836,26.10082900498,0.1842671334743,101.82994840905867
44,0.5289999991655,0.3481684625149,26.08929336045,0.1784077584743,98.59193280253412
45,0.5300000011921,0.3597956597805,26.07766616319,0.1718464791775,94.96602990985275
46,0.5310000032187,0.3714533746243,26.06600844834,0.1645832955837,90.95223973090404
47,0.5320000052452,0.3831721246243,26.05428969834,0.156847089529,86.67704725040767
48,0.5330000072718,0.3949213922024,26.04254043077,0.148790448904,82.2247757914364
49,0.5339999943972,0.4066401422024,26.03082168077,0.1405201852322,77.65445168018536
50,0.5349999964237,0.4183588922024,26.01910293077,0.1322194039822,73.06726290427557
51,0.5359999984503,0.4300471246243,26.00741469834,0.1241932809353,68.63185610990779
52,0.5370000004768,0.441704839468,25.9957569835,0.1170979440212,64.71082158636122
53,0.5380000025034,0.4532710015774,25.98419082139,0.1114674508572,61.599290964501066
54,0.53900000453,0.4647761285305,25.97268569444,0.1076298654079,59.47855938882875
55,0.5400000065565,0.4761591851711,25.9613026378,0.1057835519314,58.45824717951571
56,0.5409999936819,0.4874812066555,25.94998061631,0.1059866845608,58.57050260337773
57,0.5419999957085,0.4986811578274,25.93878066514,0.1081381738186,59.759461458891565
58,0.542999997735,0.5097895264626,25.92767229651,0.1119757592678,61.880193034508615
59,0.5439999997616,0.5208368897438,25.91662493322,0.1171027123928,64.71345669021761
60,0.5450000017881,0.5317621827126,25.90569964026,0.1232062280178,68.0863896136807
61,0.5460000038147,0.5426264405251,25.89483538244,0.1301032006741,71.89780381722161
62,0.5470000058413,0.5533991456032,25.88406267736,0.1376868188381,76.08867297458995
63,0.5479999929667,0.5640802979469,25.87338152502,0.1458044946194,80.57467376282351
64,0.5489999949932,0.5747309327126,25.86273089026,0.1542883813381,85.26305052640956
65,0.5499999970198,0.5853205323219,25.85214129065,0.1629553735256,90.05261527772714
66,0.5509999990463,0.5958185791969,25.84164324377,0.1716528832912,94.85904469364822
67,0.5520000010729,0.6063166260719,25.8311451969,0.1802283227444,99.59801545115532
68,0.5530000030994,0.6167231202126,25.82073870276,0.1885901391506,104.2189335562721
69,0.554000005126,0.6271296143532,25.81033220861,0.1967078149319,108.70493434450565
70,0.5550000071526,0.6375055909157,25.79995623205,0.2046729028225,113.10661180961117
71,0.555999994278,0.6478510499001,25.78961077307,0.2125464379787,117.4576952808509
72,0.5569999963045,0.6581965088844,25.77926531408,0.220419973135,121.80877875214593
73,0.5579999983311,0.6684809327126,25.76898089026,0.2281256616116,126.0671065680388
74,0.5590000003576,0.6787958741188,25.75866594885,0.2355261743069,130.1567877377309
75,0.5600000023842,0.6890802979469,25.74838152502,0.2425146996975,134.0187959350823
76,0.5610000044107,0.6993647217751,25.73809710119,0.2490149438381,137.61096949855667
77,0.5620000064373,0.7096186280251,25.72784319494,0.255087941885,140.96703775741625
78,0.5629999935627,0.7199030518532,25.71755877111,0.2608710229397,144.16289170240444
79,0.5639999955893,0.7301569581032,25.70730486486,0.2664709985256,147.2575576596611
80,0.5649999976158,0.7404108643532,25.69705095861,0.2719031274319,150.25946796157086
81,0.5659999996424,0.7506647706032,25.68679705236,0.2770911157131,153.12646094648687
82,0.5670000016689,0.7609186768532,25.67654314611,0.2820654809475,155.8754012791231
83,0.5680000036955,0.7711420655251,25.66631975744,0.2869025170803,158.5484506209607
84,0.569000005722,0.7813654541969,25.65609636877,0.2917242944241,161.21306763052414
85,0.5699999928474,0.7915888428688,25.6458729801,0.2965460717678,163.87768464003238
86,0.570999994874,0.8018122315407,25.63564959143,0.3014136254787,166.56759864647344
87,0.5719999969006,0.8120051026344,25.62545672033,0.3063116967678,169.2743773175733
88,0.5729999989271,0.8221979737282,25.61526384924,0.3112860620022,172.02331765020952
89,0.5740000009537,0.8323908448219,25.60507097815,0.3163824975491,174.83971664131502
90,0.5750000029802,0.8425531983376,25.59490862463,0.3216772973537,177.7657359523709
91,0.5760000050068,0.8527460694313,25.58471575354,0.32710942626,180.7676462542807
92,0.5770000070333,0.8629084229469,25.57455340002,0.3326025903225,183.80328588539746
93,0.5779999941587,0.8730402588844,25.56442156408,0.338095754385,186.83892551651425
94,0.5789999961853,0.8831720948219,25.55428972815,0.3436346948147,189.89986214456388
95,0.5799999982119,0.8933344483376,25.54412737463,0.3492651879787,193.01139276642405
96,0.5810000002384,0.9034662842751,25.53399553869,0.3549567162991,196.15665271760173
97,0.582000002265,0.9135676026344,25.52389422033,0.3605719506741,199.25975100718776
98,0.5830000042915,0.9236994385719,25.5137623844,0.3661108911037,202.32068763518217
99,0.5840000063181,0.9338312745094,25.50363054846,0.3715887963772,205.34789493402482
100,0.5849999934435,0.9439325928688,25.4935292301,0.3769904077053,208.33294057127586
101,0.58599999547,0.9540644288063,25.48339739416,0.3821631371975,211.19150122391773
102,0.5869999974966,0.9641657471657,25.4732960758,0.3870764672756,213.9067122272917
103,0.5879999995232,0.9742670655251,25.46319475744,0.3918372094631,216.53759990759292
104,0.5890000015497,0.9843683838844,25.45309343908,0.3966284692287,219.1853522524976
105,0.5900000035763,0.9944697022438,25.44299212072,0.4014502465725,221.84996926206108
106,0.5910000056028,1.004571080208,25.43289074276,0.4061804711819,224.4639922777588
107,0.5919999927282,1.014672398567,25.4227894244,0.4107428491116,226.98525963805434
108,0.5929999947548,1.024743199348,25.41271862362,0.4152899682522,229.49809466602053
109,0.5939999967813,1.03481400013,25.40264782284,0.4199591577053,232.078388352456
110,0.5949999988079,1.044915318489,25.39254650448,0.4248267114162,234.76830235889707
111,0.5960000008345,1.05498611927,25.3824757037,0.4297553002834,237.49194569460042
112,0.597000002861,1.065026402473,25.37243542049,0.4346228539944,240.18185970109676
113,0.5980000048876,1.075097203255,25.36236461971,0.4393530786037,242.79588271673921
114,0.5990000069141,1.085137486458,25.35232433651,0.4438696801662,245.2918530801019
115,0.5999999940395,1.095177769661,25.34228405331,0.4481573998928,247.66133845885545
116,0.6009999960661,1.105218052864,25.3322437701,0.4524298608303,250.02239150527961
117,0.6019999980927,1.115258336067,25.3222034869,0.4569312036037,252.5099295363129
118,0.6030000001192,1.125268101692,25.31219372128,0.4617377221584,255.166114213547
119,0.6044999957085,1.140252232552,25.29720959042,0.4692145287991,259.2979570448307
120,0.6060000061989,1.155205845833,25.28225597714,0.4766303002834,263.3960705467969
121,0.6075000017881,1.170159459114,25.26730236385,0.4839850366116,267.4604547196114
122,0.6089999973774,1.185082554817,25.25237926815,0.4914465844631,271.5838652185105
123,0.6104999929667,1.199975132942,25.23748669003,0.499228566885,275.88435469593975
124,0.6120000034571,1.214837193489,25.22262462948,0.5074988603592,280.4546952766327
125,0.6134999990463,1.229668736458,25.20779308651,0.5159674882889,285.13463970794464
126,0.6149999946356,1.244500279427,25.19296154354,0.5243445634842,289.76399014539084
127,0.616500005126,1.259331822395,25.17813000057,0.5327979326248,294.43550224437337
128,0.6180000007153,1.274132847786,25.16332897518,0.5413428544998,299.1576083372217
129,0.6194999963045,1.288933873177,25.14852794979,0.5497809648514,303.8206881039302
130,0.6210000067949,1.303734898567,25.1337269244,0.5581122636795,308.4247415444434
131,0.6225000023842,1.31850540638,25.11895641659,0.5662451982498,312.91917466495113
132,0.6239999979734,1.33330643177,25.1041553912,0.5740424394608,317.22809647470973
133,0.6254999935627,1.348076939583,25.08938488339,0.5815650224686,321.3852363028711
134,0.6270000040531,1.362847447395,25.07461437557,0.5890723466873,325.53394379870304
135,0.6284999996424,1.377648472786,25.05981335018,0.5965338945389,329.65735429765743
136,0.6299999952316,1.392418980598,25.04504284237,0.6038275957108,333.6880091412096
137,0.631500005722,1.407189488411,25.03027233456,0.6110755205154,337.6933669877737
138,0.6330000013113,1.421959996223,25.01550182674,0.6185981035233,341.8505068159903
139,0.6344999969006,1.436730504036,25.00073131893,0.6263343095779,346.1256992964314
140,0.6359999924898,1.45147049427,24.9859913287,0.6342688798904,350.51051209693344
141,0.6375000029802,1.466210484505,24.97125133846,0.6421729326248,354.8784602328319
142,0.6389999985695,1.480950474739,24.95651134823,0.6494666337967,358.9091150763841
143,0.6404999941587,1.495659947395,24.94180187557,0.6564246416092,362.754258609132
144,0.6420000046492,1.510369420052,24.92709240292,0.6638861894608,366.87766910808637
145,0.6435000002384,1.525109410286,24.91235241268,0.6716834306717,371.1865909177897
146,0.6449999958277,1.539818882942,24.89764294003,0.6793738603592,375.43648640135325
147,0.6465000063181,1.55449783802,24.88296398495,0.6872473955154,379.787569872593
148,0.6480000019073,1.569207310677,24.86825451229,0.695441365242,384.31573232236286
149,0.6494999974966,1.583886265755,24.85357555721,0.7041083574295,389.10529707368045
150,0.6509999930859,1.598565220833,24.83889660214,0.7131110429764,394.0803731358024
151,0.6525000035763,1.613244175911,24.82421764706,0.7218238115311,398.8952348840528
152,0.6539999991655,1.627923130989,24.80953869198,0.7300330400467,403.43182966609686
153,0.6554999947548,1.642632603645,24.79482921932,0.7381507158279,407.91783045427513
154,0.6570000052452,1.657311558723,24.78015026424,0.7462531328201,412.39539891017927
155,0.6585000008345,1.67202103138,24.76544079159,0.7543402910233,416.8645350338093
156,0.6599999964237,1.686699986458,24.75076183651,0.7623816728592,421.3083741604512
157,0.6615000069141,1.701409459114,24.73605236385,0.7702094316483,425.6341606348134
158,0.6630000025034,1.71611893177,24.7213428912,0.7780371904373,429.9599471091202
159,0.6644999980927,1.730797886848,24.70666393612,0.7861853837967,434.46281256195726
160,0.6659999936819,1.745537877083,24.69192394589,0.7944709062576,439.04156900553767
161,0.6675000041723,1.760247349739,24.67721447323,0.802619099617,443.54443445837467
162,0.6689999997616,1.774956822395,24.66250500057,0.8107062578201,448.01357058194947
163,0.6704999953508,1.789666295052,24.64779552792,0.8187476396561,452.45740970864665
164,0.6720000058413,1.804406285286,24.63305553768,0.8268347978592,456.9265458322214
165,0.6735000014305,1.81914627552,24.61831554745,0.8350592851639,461.47157294659485
166,0.6749999970198,1.833855748177,24.60360607479,0.8432685136795,466.00816772863885
167,0.676499992609,1.848595738411,24.58886608456,0.8513251543045,470.4604391876101
168,0.6780000030994,1.863335728645,24.57412609432,0.8593512773514,474.89584598197797
169,0.6794999986887,1.87807571888,24.55938610409,0.8674384355545,479.36498210555266
170,0.680999994278,1.892815709114,24.54464611385,0.8756476640701,483.9015768875967
171,0.6825000047684,1.907586216927,24.52987560604,0.8839484453201,488.4887656635065
172,0.6840000003576,1.922326207161,24.51513561581,0.8922644853592,493.0843867717457
173,0.6854999959469,1.937096714973,24.50036510799,0.9009467363358,497.8823838553927
174,0.6870000064373,1.951867222786,24.48559460018,0.9102088212967,503.0008095667272
175,0.6885000020266,1.966637730598,24.47082409237,0.9198218584061,508.31317892119534
176,0.6899999976158,1.981469273567,24.4559925494,0.9294196367264,513.6171159433342
177,0.6914999932051,1.996270298958,24.44119152401,0.9386664628983,518.7271093223945
178,0.6930000036955,2.011132240295,24.42632958267,0.9475470781326,523.6347267259919
179,0.6944999992847,2.025994300842,24.41146752213,0.9564124345779,528.5339117973151
180,0.695999994874,2.040856361389,24.39660546158,0.9653388261795,533.4668261979006
181,0.6975000053644,2.055779457092,24.38168236588,0.9740973711014,538.306984943084
182,0.6990000009537,2.070702552795,24.36675927017,0.9824591875076,542.9279030482007
183,0.7004999965429,2.085656166077,24.35180565689,0.9904853105545,547.3633098425685
184,0.7020000070333,2.100609779358,24.33685204361,0.9984046220779,551.7396903107411
185,0.7029999941587,2.110619544983,24.32684227799,1.003668904305,554.6488449575251
186,0.7039999961853,2.120629310608,24.31683251236,1.008963704109,557.5748642682495
187,0.7049999982119,2.130639076233,24.30682274674,1.014334797859,560.543045240897
188,0.7060000002384,2.140648841858,24.29681298111,1.019797444344,563.5618202077418
189,0.707000002265,2.150658607483,24.28680321549,1.025305867195,566.6058921708564
190,0.7080000042915,2.160698890686,24.27676293228,1.030829548836,569.6583964667976
191,0.7090000063181,2.170708656311,24.26675316666,1.036383748055,572.7277654272873
192,0.7099999934435,2.180748939514,24.25671288345,1.042014241219,575.8392960491475
193,0.71099999547,2.190789222717,24.24667260025,1.047736287117,579.0014206646523
194,0.7119999974966,2.20082950592,24.23663231705,1.053504109383,582.1888422775321
195,0.7129999995232,2.210869789124,24.22659203384,1.059287190437,585.3846962221335
196,0.7140000015497,2.220940589905,24.21652123306,1.065116047859,588.6058471641098
197,0.7150000035763,2.230980873108,24.20648094986,1.07096016407,591.8354304383602
198,0.7160000056028,2.241027116776,24.19643470619,1.076810836792,595.0686369804408
199,0.7169999927282,2.251097917557,24.18636390541,1.082654953003,598.2982202546914
200,0.7179999947548,2.26113820076,24.17632362221,1.088514328003,601.5362358612159
201,0.7189999967813,2.271209001541,24.16625282143,1.09441947937,604.7995484645628
202,0.7199999988079,2.281249284744,24.15621253822,1.100416183472,608.113455062107
203,0.7210000008345,2.291320085526,24.14614173744,1.106473922729,611.4610909881951
204,0.722000002861,2.301390886307,24.13607093666,1.112577438354,614.8340239116582
205,0.7230000048876,2.311461687088,24.12600013588,1.118711471558,618.2238215002221
206,0.7240000069141,2.321532487869,24.1159293351,1.12486076355,621.6220514205077
207,0.7249999940395,2.331603288651,24.10585853432,1.131071090698,625.0540106698895
208,0.7259999960661,2.34170460701,24.09575721596,1.137250900269,628.469105255276
209,0.7269999980927,2.351775407791,24.08568641518,1.143384933472,631.8589028432872
210,0.7280000001192,2.361876726151,24.07558509682,1.149457931519,635.2149711022021
211,0.7290000021458,2.37197804451,24.06548377846,1.155576705933,638.5963363579392
212,0.7300000041723,2.382079362869,24.0553824601,1.161787033081,642.0282956073212
213,0.7310000061989,2.392211198807,24.04525062416,1.168058395386,645.4939841863521
214,0.7319999933243,2.402312517166,24.0351493058,1.17432975769,648.9596727648305
215,0.7329999953508,2.412444353104,24.02501746986,1.180570602417,652.4084966793133
216,0.7339999973774,2.422576189041,24.01488563393,1.186674118042,655.7814296027764
217,0.734999999404,2.432738542557,24.00472328041,1.192518234253,659.0110128770269
218,0.7360000014305,2.442870378494,23.99459144447,1.198041915894,662.0635171729682
219,0.7370000034571,2.45303273201,23.98442909096,1.203321456909,664.9811041514184
220,0.7380000054836,2.463195085526,23.97426673744,1.208585739136,667.8902587981471
221,0.738999992609,2.473326921463,23.96413490151,1.213972091675,670.8668721030688
222,0.7399999946356,2.483489274979,23.95397254799,1.219495773315,673.9193763984574
223,0.7409999966621,2.493651628494,23.94381019447,1.225065231323,676.997177691221
224,0.7419999986887,2.50381398201,23.93364784096,1.230604171753,680.0581143194365
225,0.7430000007153,2.513976335526,23.92348548744,1.236112594604,683.1021862825511
226,0.7440000027418,2.524138689041,23.91332313393,1.241666793823,686.1715552430406
227,0.7450000047684,2.534301042557,23.90316078041,1.247312545776,689.2915181971749
228,0.7460000067949,2.544463396072,23.8929984269,1.253080368042,692.4789398100548
229,0.7469999939203,2.554625749588,23.88283607338,1.259077072144,695.7928464075991
230,0.7479999959469,2.564818620682,23.87264320229,1.265302658081,699.2332379892551
231,0.7489999979734,2.574980974197,23.86248084877,1.271726608276,702.7832498910273
232,0.75,2.585112810135,23.85234901283,1.278287887573,706.4091527838192
233,0.7510000020266,2.595305681229,23.84215614174,1.284910202026,710.0687850057076
234,0.7520000040531,2.605468034744,23.83199378822,1.291624069214,713.7790112217932
235,0.7530000060797,2.61563038826,23.82183143471,1.298444747925,717.5482637637979
236,0.7539999932051,2.625792741776,23.81166908119,1.305280685425,721.3259486380765
237,0.7549999952316,2.635985612869,23.8014762101,1.312040328979,725.0614718504319
238,0.7559999972582,2.646147966385,23.79131385658,1.318677902222,728.7295364051471
