,time,travel,position,force,stress
0,0.0,0.0,20.36847534309,-0.01448967028409,-8.007300866266219
1,0.0,0.0,20.36847966722,-0.01447017956525,-7.996529879294689
2,0.0,0.0,20.36846953629,-0.01452666986734,-8.027747625177946
3,0.0,0.0,20.36846874374,-0.01429191697389,-7.898018168935959
4,0.0,0.0,20.36846627387,-0.01436701882631,-7.939521054519296
5,0.0,0.0,20.37856234362,-0.01524856779724,-8.426683819453611
6,0.0,0.0,20.37856567839,-0.01510951016098,-8.349837603531897
7,0.007999986410141,-8.805654942989e-07,20.37856655895,-0.01471035275608,-8.129254707484785
8,0.01099999248981,6.640329957008e-07,20.37856501436,-0.01503519807011,-8.308771157026847
9,0.01299999654293,2.673361450434e-06,20.37856300503,-0.01495839748532,-8.26632951570158
10,0.01399999856949,-7.986091077328e-07,20.378566477,-0.01487995777279,-8.2229820574243
11,0.1144999861717,2.785604920064e-06,20.37856289278,-0.01427445746958,-7.88836967443988
12,0.2144999951124,-2.173571374442e-06,20.37856785196,-0.01244890317321,-6.879529430863725
13,0.3149999976158,-2.673781455087e-05,20.3785924162,-0.01360616087914,-7.51905472367604
14,0.415499985218,-2.81114680547e-05,20.37859378986,-0.01045244280249,-5.7762428451444
15,0.508499994874,0.01056003849953,20.36800563989,0.06660013645887,36.80465600008306
16,0.5149999856949,0.02153110690415,20.35703457148,0.06774812191725,37.43905725112053
17,0.5194999873638,0.03156376257539,20.34700191581,0.07467895001173,41.26918069194231
18,0.52349999547,0.04206943884492,20.33649623954,0.09429412335157,52.108943874719735
19,0.5269999951124,0.0526361502707,20.32592952812,0.1180978342891,65.26338227624235
20,0.5299999862909,0.06283664703369,20.31572903135,0.1398873776197,77.30474869561745
21,0.5329999923706,0.07421207427979,20.30435360411,0.1590981930494,87.92105507222443
22,0.5354999899864,0.08458805084229,20.29397762755,0.1721444576979,95.13069919616132
23,0.5379999876022,0.09575748443604,20.28280819395,0.1835580319166,101.43808376300966
24,0.540499985218,0.1076745986938,20.27089107969,0.1959329098463,108.27670526533797
25,0.5424999892712,0.1176996231079,20.26086605528,0.2058358639479,113.74928893367755
26,0.5444999933243,0.1281366348267,20.25042904356,0.2141366451979,118.33647770958736
27,0.5464999973774,0.1388940811157,20.23967159727,0.2222848385572,122.83934316236913
28,0.5484999865294,0.149956703186,20.2286089752,0.231257006526,127.7975545598875
29,0.5504999905825,0.1612176895142,20.21734798887,0.2391000241041,132.13177336652376
30,0.5524999946356,0.172646522522,20.20591915587,0.2427125424147,134.12812804062781
31,0.5544999986887,0.1840906143188,20.19447506407,0.2450967282057,135.44567996384697
32,0.5564999878407,0.1954736709595,20.18309200743,0.2521005272865,139.31612872819346
33,0.5584999918938,0.2067499160767,20.17181576231,0.2665048241615,147.27625042756634
34,0.5604999959469,0.2179193496704,20.16064632872,0.2867379784584,158.4575230688603
35,0.5625,0.2290124893188,20.14955318907,0.3102059960365,171.42645015956205
36,0.564499989152,0.2400751113892,20.138490567,0.3354135155678,185.35666313349225
37,0.5664999932051,0.2511377334595,20.12742794493,0.3605294823647,199.23628211355665
38,0.5684999972582,0.2622156143188,20.11635006407,0.3829599022865,211.63181060724204
39,0.5704999864101,0.2733240127563,20.10524166563,0.4024301171303,222.39146663311695
40,0.5724999904633,0.2844324111938,20.09413326719,0.4200692772865,232.13924278189762
41,0.5744999945164,0.2955560684204,20.08300960997,0.4363351464272,241.1281090229682
42,0.5764999985695,0.3066339492798,20.07193172911,0.4513192772865,249.4086593500286
43,0.5784999877214,0.3176507949829,20.06091488341,0.4662118554115,257.63861568327854
44,0.5804999917746,0.3285455703735,20.05002010802,0.4834848046303,267.1840158567067
45,0.5824999958277,0.3393030166626,20.03926266173,0.5031686425209,278.06172453486136
46,0.5844999998808,0.3499231338501,20.02864254454,0.5247750878334,290.0019070839207
47,0.5864999890327,0.3604364395142,20.01812923887,0.5486398339272,303.19007481468896
48,0.5884999930859,0.3708295226097,20.00773615578,0.5736418962479,317.0067477516023
49,0.590499997139,0.3811292052269,19.99743647316,0.5972625017166,330.0599981653768
50,0.5924999862909,0.3913373351097,19.98722834328,0.6202117204666,342.742225957598
51,0.594499990344,0.4015149474144,19.97705073097,0.6437102556229,355.7280177129585
52,0.5964999943972,0.4116315245628,19.96693415383,0.6671477556229,368.68008013905677
53,0.5984999984503,0.4217328429222,19.95683283547,0.6902495622635,381.44663125435073
54,0.6004999876022,0.4318189024925,19.9467467759,0.7132903337479,394.1794530404377
55,0.6024999916553,0.4418897032738,19.93667597511,0.7368804216385,407.2158387896087
56,0.6044999957085,0.4519757628441,19.92658991554,0.7600737810135,420.03298389876846
57,0.6064999997616,0.4620618224144,19.91650385597,0.7825957536697,432.47910638631964
58,0.6084999889135,0.4721631407738,19.90640253761,0.8046599626541,444.6722589046525
59,0.6104999929667,0.4822644591331,19.89630121926,0.826357960701,456.66303544757756
60,0.6124999970198,0.4923962950706,19.88616938332,0.8479338884354,468.5863533320334
61,0.6144999861717,0.5025281310081,19.87603754738,0.8699980974197,480.77950585031107
62,0.6164999902248,0.5126599669456,19.86590571144,0.8921843767166,493.0401170271132
63,0.618499994278,0.5228223204613,19.85574335793,0.9141265153885,505.1658108869768
64,0.6204999983311,0.5329694151878,19.8455962632,0.9360381364822,517.2746400821817
65,0.622499987483,0.5431317687035,19.83543390969,0.9580718278885,529.450927935911
66,0.6244999915361,0.5532941222191,19.82527155617,0.9803801774979,541.7789977711824
67,0.6264999955893,0.5634259581566,19.81513972023,1.00232231617,553.9046916311565
68,0.6284999996424,0.5735730528831,19.80499262551,1.024142384529,565.9629268323299
69,0.6304999887943,0.5837048888206,19.79486078957,1.045687794685,577.8693800520164
70,0.6324999928474,0.59380620718,19.78475947121,1.067294239998,589.8095626013521
71,0.6344999969006,0.6039075255394,19.77465815285,1.089938282967,602.3231437475382
72,0.6364999860525,0.6139783263206,19.76458735207,1.112612843513,614.85358955772
73,0.6384999901056,0.6240186095238,19.75454706886,1.135531544685,627.5189526853931
74,0.6404999941587,0.6340588927269,19.74450678566,1.159152150154,640.5722030993334
75,0.6424999982119,0.644083917141,19.73448176125,1.182437062263,653.4399422021378
76,0.6444999873638,0.654093682766,19.72447199562,1.205050587654,665.9366586837758
77,0.6469999998808,0.6665906310081,19.71197504738,1.233554005623,681.6882554364865
78,0.6494999974966,0.6790875792503,19.69947809914,1.262972950935,697.9457921273023
79,0.6514999866486,0.6890973448753,19.68946833351,1.286440968513,710.9147192179488
80,0.6534999907017,0.6991071105003,19.67945856789,1.30993950367,723.9005109736961
81,0.6554999947548,0.7091168761253,19.66944880226,1.33352959156,736.9368967225356
82,0.6574999988079,0.7191419005394,19.65942377785,1.356448292732,749.6022598502086
83,0.6594999879599,0.7291821837425,19.64938349465,1.379153370857,762.1495703254913
84,0.661499992013,0.7392072081566,19.63935847023,1.402011036873,774.7812041240678
85,0.6634999960661,0.7492322325706,19.62933344582,1.424655079842,787.2947852702539
86,0.665499985218,0.7592572569847,19.6193084214,1.447238087654,799.7746370867911
87,0.6674999892712,0.7692670226097,19.60929865578,1.47058403492,812.6761055192445
88,0.6694999933243,0.7792767882347,19.59928889015,1.494906544685,826.1172432188996
89,0.6714999973774,0.7893018126488,19.58926386574,1.518893361092,839.372869608524
90,0.6734999865294,0.7993115782738,19.57925410011,1.542208790779,852.2574733758767
91,0.6754999905825,0.8093213438988,19.56924433449,1.565524220467,865.1420771437819
92,0.6779999881983,0.821818292141,19.55674738625,1.595797657967,881.8718244441588
93,0.6799999922514,0.831828057766,19.54673762062,1.619692921638,895.0768568390333
94,0.6824999898672,0.8443402647972,19.53422541359,1.64895927906,911.2500702071079
95,0.684999987483,0.8568372130394,19.52172846535,1.67810356617,927.3558249169895
96,0.6875,0.8693341612816,19.50923151711,1.707675099373,943.6976849310992
97,0.6899999976158,0.8818311095238,19.49673456886,1.737582325935,960.225056255792
98,0.6924999952316,0.8942975401878,19.4842681382,1.768710255623,977.42701416573
99,0.6949999928474,0.906779229641,19.47178644875,1.800143361092,994.797618721703
100,0.6974999904633,0.919230401516,19.45933527687,1.831057667732,1011.8815239786982
101,0.6999999880791,0.93169683218,19.44686884621,1.861575245857,1028.7461885960136
102,0.7024999856949,0.944148004055,19.43441767433,1.891818165779,1045.4590712318422
103,0.7049999982119,0.956583917141,19.42198176125,1.922061085701,1062.171953867671
104,0.7074999958277,0.9690045714378,19.40956110695,1.953402638435,1079.4919644294466
105,0.7099999934435,0.9814404845238,19.39712519386,1.984988331795,1096.9468923087136
106,0.7124999910593,0.9938611388206,19.38470453957,2.016574144363,1114.401886064864
107,0.7149999886751,1.006266474724,19.37229920366,2.048342943192,1131.9580019319728
108,0.7174999862909,1.01870238781,19.35986329058,2.080233812332,1149.5815764567221
109,0.7199999988079,1.031138300896,19.34742737749,2.11151432991,1166.8678576894013
110,0.7224999964237,1.043574213982,19.33499146441,2.14374089241,1184.6769435252863
111,0.7249999940395,1.056025385857,19.32254029253,2.176669359207,1202.8739166474388
112,0.7274999916553,1.068491816521,19.31007386187,2.209292650223,1220.9022431235562
113,0.7299999892712,1.080973505974,19.29759217241,2.241915941238,1238.930569599121
114,0.732499986887,1.093455195427,19.28511048296,2.275332689285,1257.3973773551504
115,0.7344999909401,1.103464961052,19.27510071734,2.30194401741,1272.1033649014496
116,0.7364999949932,1.113474726677,19.26509095171,2.328280687332,1286.657570466262
117,0.7384999990463,1.12351500988,19.25505066851,2.354617357254,1301.2117760310741
118,0.7404999881983,1.133555293083,19.24501038531,2.38089299202,1315.73225226679
119,0.7424999922514,1.143595576286,19.2349701021,2.40726017952,1330.3033224961507
120,0.7444999963045,1.153651118279,19.22491456011,2.433535814285,1344.8237987313137
121,0.7464999854565,1.163706660271,19.21485901812,2.45999455452,1359.4454629548718
122,0.7484999895096,1.173746943474,19.20481873491,2.486727952957,1374.2189091593636
123,0.7504999935627,1.183787226677,19.19477845171,2.513644456863,1389.0935433516977
124,0.7524999976158,1.193812251091,19.1847534273,2.541018724442,1404.2211475139131
125,0.7544999867678,1.203837275505,19.17472840288,2.56888127327,1419.6185863094531
126,0.7564999908209,1.213862299919,19.16470337847,2.596560716629,1434.914837117151
127,0.758499994874,1.223887324333,19.15467835406,2.62356877327,1449.8400653036824
128,0.7609999924898,1.236384272575,19.14218140581,2.657382249832,1468.5261136993915
129,0.7634999901056,1.248881220818,19.12968445757,2.691622972488,1487.4482673998814
130,0.7659999877214,1.261347651482,19.11721802691,2.725405931473,1506.1174511315949
131,0.7684999853373,1.273798823357,19.10476685503,2.759280443192,1524.8372288569533
132,0.7709999978542,1.286234736443,19.09233094195,2.793795824051,1543.9111645389298
133,0.77349999547,1.29864013195,19.07992554644,2.827853441238,1562.7321302515775
134,0.7759999930859,1.31101500988,19.06755066851,2.861819505692,1581.5025019711331
135,0.7784999907017,1.32338988781,19.05517579058,2.896151781082,1600.4752496652677
136,0.7809999883175,1.335718989372,19.04284668902,2.931124925613,1619.802155316573
137,0.7834999859333,1.348048090935,19.03051758745,2.965914964676,1639.0278729805889
138,0.7859999984503,1.360346674919,19.01821900347,3.000582933426,1658.1861319858592
139,0.7884999960661,1.372630000114,19.00593567827,3.035556077957,1677.5130376371644
140,0.7909999936819,1.38491332531,18.99365235308,3.070254564285,1696.688161306983
141,0.7934999912977,1.397181391716,18.98138428667,3.105441331863,1716.1331196106787
142,0.7959999889135,1.409434199333,18.96913147906,3.141757249832,1736.2020705054222
143,0.7984999865294,1.421702265739,18.95686341265,3.177706956863,1756.0686454244817
144,0.8009999990463,1.434000849724,18.94456482866,3.213320970535,1775.7497090329578
145,0.8034999966621,1.446314692497,18.93225098589,3.248446702957,1795.160938007557
146,0.805999994278,1.45864379406,18.91992188433,3.28338932991,1814.470978994314
147,0.8084999918938,1.470988154411,18.90757752398,3.319094896317,1834.2026365969875
148,0.8109999895096,1.483347773552,18.89521790484,3.355349779129,1854.237858162082
149,0.8134999871254,1.495722651482,18.88284302691,3.391452074051,1874.1887564044353
150,0.8159999996424,1.5081127882,18.87045289019,3.427737474442,1894.2408426346306
151,0.8184999972582,1.520502924919,18.85806275347,3.464297533035,1914.4447108457598
152,0.820999994874,1.532908320427,18.84565735796,3.500582933426,1934.4967970759553
153,0.8234999924898,1.545328974724,18.83323670366,3.536837816238,1954.5320186410497
154,0.8259999901056,1.557734370232,18.82083130816,3.573336839676,1974.7021575236354
155,0.8284999877214,1.570155024529,18.80841065386,3.609957933426,1994.9397550644137
156,0.8309999853373,1.582560420036,18.79600525835,3.646090745926,2014.9075179713152
157,0.8334999978542,1.594965815544,18.78359986284,3.68265080452,2035.1113861829974
158,0.83599999547,1.607355952263,18.77120972613,3.719668626785,2055.5682243634556
159,0.8384999930859,1.619730830193,18.7588348482,3.757205247879,2076.3117618428914
160,0.8409999907017,1.632103681564,18.74646199682,3.794986486435,2097.1904801495634
161,0.8434999883175,1.644478559494,18.73408711889,3.832431554794,2117.8834236348025
162,0.8459999859333,1.656868696213,18.72169698218,3.869418859482,2138.323397151265
163,0.8484999984503,1.669243574142,18.70932210425,3.906985998154,2159.0837992952493
164,0.8509999960661,1.681603193283,18.69696248511,3.945255041122,2180.2320887249484
165,0.8534999936819,1.693978071213,18.68458760718,3.983768224716,2201.515295472139
166,0.8559999912977,1.706352949142,18.67221272925,4.021731853485,2222.4948065009303
167,0.8584999889135,1.718727827072,18.65983785132,4.06006193161,2243.6768252602787
168,0.8609999865294,1.731117963791,18.6474477146,4.098727703094,2265.0443553302102
169,0.8634999990463,1.743523359299,18.63504231909,4.137973308563,2286.7323140282156
170,0.8659999966621,1.755944013596,18.62262166479,4.177096843719,2308.352814067476
171,0.868499994278,1.768395185471,18.61017049292,4.215884685516,2329.7878027961533
172,0.8709999918938,1.780831098557,18.59773457983,4.254519939423,2351.138468202089
173,0.8734999895096,1.793297529221,18.58526814917,4.294253826141,2373.0962615334192
174,0.8759999871254,1.805748701096,18.57281697729,4.334170818329,2395.155242853144
175,0.8784999996424,1.81821513176,18.56035054663,4.374087810516,2417.2142241723163
176,0.8809999972582,1.830696821213,18.54786885718,4.414615154266,2439.6104987841113
177,0.883499994874,1.843193769455,18.53537190893,4.454837322235,2461.838126749871
178,0.8859999924898,1.855690717697,18.52287496069,4.494937419891,2483.9982960568855
179,0.8879999965429,1.865700483322,18.51286519507,4.527286052704,2501.874840551516
180,0.8899999856949,1.875725507736,18.50284017065,4.559634685516,2519.7513850455944
181,0.891999989748,1.88575053215,18.49281514624,4.591556072235,2537.3918242354443
182,0.8939999938011,1.895775556564,18.48279012182,4.623660564423,2555.1334514131363
183,0.8959999978542,1.905800580978,18.47276509741,4.656009197235,2573.0099959072145
184,0.8979999870062,1.915810346603,18.46275533179,4.688357830048,2590.886540401845
185,0.8999999910593,1.925820112228,18.45274556616,4.720523357391,2608.6618969080814
186,0.9024999886751,1.938317060471,18.44024861792,4.760928630829,2630.9907128616833
187,0.9049999862909,1.950798749924,18.42776692846,4.802371501923,2653.8929274121356
188,0.9074999988079,1.963265180588,18.4153004978,4.84375333786,2676.761412632939
189,0.9099999964237,1.975716352463,18.40284932593,4.885318279266,2699.7310858415844
190,0.9124999940395,1.988167524338,18.39039815405,4.926578044891,2722.5321124041952
191,0.9149999916553,2.000603437424,18.37796224096,4.96777677536,2745.299409637709
192,0.9174999892712,2.013054609299,18.36551106909,5.009646892548,2768.437729492942
193,0.919999986887,2.025505781174,18.35305989721,5.052188396454,2791.947071969342
194,0.922499999404,2.037972211838,18.34059346655,5.094851970673,2815.5238731044865
195,0.9244999885559,2.047981977463,18.33058370093,5.128787517548,2834.2773801589415
196,0.926499992609,2.058022260666,18.32054341772,5.162845134735,2853.098345871589
197,0.9284999966621,2.068077802658,18.31048787573,5.196597576141,2871.750664938202
198,0.9304999858141,2.078148603439,18.30041707495,5.230044841766,2890.2343373587796
199,0.9324999898672,2.088249921799,18.29031575659,5.263431072235,2908.6842804502608
200,0.9344999939203,2.098366498947,18.28019917944,5.297183513641,2927.336599516874
201,0.9364999979734,2.108498334885,18.2700673435,5.331485271454,2946.2924825470127
202,0.9384999871254,2.118645429611,18.25992024878,5.364993572235,2964.8098842966865
203,0.9404999911785,2.128792524338,18.24977315405,5.398623943329,2983.3947447051064
204,0.9424999952316,2.138939619064,18.23962605932,5.432986736298,3002.3843570643417
205,0.9444999992847,2.149071455002,18.22949422339,5.467654705048,3021.542616069612
206,0.9464999884367,2.159233808517,18.21933186987,5.502200603485,3040.6334164161367
207,0.9484999924898,2.169380903244,18.20918477514,5.536746501923,3059.7242167632144
208,0.9504999965429,2.179512739182,18.19905293921,5.571597576141,3078.983663755774
209,0.9524999856949,2.189659833908,18.18890584448,5.60644865036,3098.2431107488865
210,0.954499989748,2.199791669846,18.17877400854,5.641238689423,3117.4688284129024
211,0.9564999938011,2.209923505783,18.16864217261,5.67627286911,3136.829463393304
212,0.9584999978542,2.220055341721,18.15851033667,5.711001873016,3156.021451727671
213,0.9604999870062,2.230171918869,18.14839375952,5.745364665985,3175.011064086906
214,0.9624999910593,2.240257978439,18.13830769995,5.780215740204,3194.270511080019
215,0.9644999951124,2.250328779221,18.12823689917,5.815677165985,3213.867251365201
216,0.9664999991655,2.260399580002,18.11816609839,5.851138591766,3233.4639916503834
217,0.9684999883175,2.270470380783,18.10809529761,5.886477947235,3252.9932732773727
218,0.9704999923706,2.280525922775,18.09803975561,5.921817302704,3272.5225549043626
219,0.9724999964237,2.290566205978,18.08799947241,5.957095623016,3292.0181072017026
220,0.9744999855757,2.300591230392,18.077974448,5.992129802704,3311.3787421826573
221,0.9764999896288,2.310600996017,18.06796468237,6.027286052704,3330.8068358218047
222,0.9789999872446,2.323082685471,18.05548299292,6.072024822235,3355.5304341506508
223,0.9814999997616,2.335564374924,18.04300130346,6.117068767548,3380.4226791260844
224,0.9839999973774,2.348015546799,18.03055013159,6.162478923798,3405.51730007665
225,0.9864999949932,2.360466718674,18.01809895971,6.207950115204,3430.6456503563118
226,0.988999992609,2.37290263176,18.00566304663,6.253543376923,3455.8414592947192
227,0.9914999902248,2.385353803635,17.99321187475,6.299685955048,3481.3408321961
228,0.9939999878407,2.397820234299,17.98074544409,6.345279216766,3506.536641133955
229,0.9964999854565,2.410301923752,17.96826375464,6.390567302704,3531.5638034263275
230,0.9989999979734,2.422798871994,17.95576680639,6.436465740204,3556.92825901077
231,1.000999987125,2.432808637619,17.94575704077,6.47314786911,3577.1995858806445
232,1.002999991179,2.442848920822,17.93571675757,6.509891033173,3597.5046420801687
233,1.004999995232,2.452873945236,17.92569173315,6.546451091766,3617.7085102912984
234,1.006999999285,2.462929487228,17.91563619116,6.583377361298,3638.1147544786645
235,1.008999988437,2.472985029221,17.90558064917,6.620669841766,3658.7233746406096
236,1.01099999249,2.483055830002,17.89550984839,6.657901287079,3679.298265474011
237,1.012999996543,2.493141889572,17.88542378882,6.69482755661,3699.704509660824
238,1.014999985695,2.503243207932,17.87532247046,6.731509685516,3719.9758365306993
239,1.016999989748,2.513344526291,17.8652211521,6.768313884735,3740.3146220593194
