,time,travel,position,force,stress
0,0.0,0.0,18.02012180455,-0.0113571677357,-6.276213141182096
1,0.0,0.0,18.02012146182,-0.0112658534199,-6.225750902520205
2,0.0,0.0,18.02011742361,-0.01091597415507,-6.032400157787383
3,0.0,0.0,18.02011046477,-0.01161716319621,-6.419892178409943
4,0.0,0.0,18.02010475762,-0.01164032705128,-6.432693018810828
5,0.0,0.0,18.19871036669,-0.01229690201581,-6.795530349072409
6,0.0,0.0,18.19871093997,-0.01234294660389,-6.8209755705847765
7,0.008000001311302,-1.979991793633e-06,18.19871291996,-0.01224830932915,-6.7686769939333296
8,0.01099999248981,4.993751645088e-06,18.19870594621,-0.012072654441,-6.671606355991225
9,0.01299999654293,7.400289177895e-06,18.19870353968,-0.01186523027718,-6.556979338669502
10,0.01399999856949,5.299225449562e-06,18.19870564074,-0.01179394312203,-6.517584536165748
11,0.1145000010729,-5.329250143404e-06,18.19871626922,-0.01338175404817,-7.395042722243877
12,0.2149999886751,1.906893317027e-06,18.19870903307,-0.009712980128825,-5.367599998805046
13,0.3149999976158,-2.594011675683e-05,18.19873688008,-0.008349048905075,-4.613862511662024
14,0.4155000001192,-3.215815740987e-05,18.19874309812,-0.01172773353755,-6.480995707519732
15,0.5159999877214,0.00619380408898,18.19251713588,-0.009618795476854,-5.315551551150273
16,0.5444999933243,0.01623647101223,18.18247446895,0.005465053487569,3.020105127806279
17,0.5579999983311,0.02646558173001,18.17224535824,0.01943399757147,10.739641588664377
18,0.5670000016689,0.0370361097157,18.16167483025,0.01958694308996,10.824162544537419
19,0.5740000009537,0.04709928110242,18.15161165886,0.01341285649687,7.412230598816333
20,0.5804999917746,0.0572997815907,18.14141115838,0.008945845998824,4.9436653154572685
21,0.5869999974966,0.06792752444744,18.13078341552,0.009025746025145,4.987819774284212
22,0.5934999883175,0.07874219119549,18.11996874877,0.006921463180333,3.824948189508846
23,0.5999999940395,0.08944061398506,18.10927032598,0.005170210264623,2.857168473747246
24,0.6064999997616,0.09974029660225,18.09897064336,0.003375156782568,1.8651836307494256
25,0.6134999990463,0.1099102795124,18.08880066045,0.0003820499405265,0.21112894632901774
26,0.6215000003576,0.1202900707722,18.07842086919,0.01471768226475,8.133305150315568
27,0.6295000016689,0.1303494274616,18.0683615125,0.02515087835491,13.898911851690567
28,0.6374999880791,0.1407215893269,18.05798935064,0.03394757211208,18.760152456965645
29,0.6449999958277,0.1511318981647,18.0475790418,0.04116974771023,22.751280742810224
30,0.6519999951124,0.1614544689655,18.037256471,0.03980730473995,21.998365696279436
31,0.6589999943972,0.1719334423542,18.02677749761,0.03674505650997,20.30610200608595
32,0.6659999936819,0.1820767223835,18.01663421758,0.03811787068844,21.06474840348227
33,0.6735000014305,0.1922924816608,18.00641845831,0.03880701959133,21.44558678688956
34,0.6819999963045,0.202836304903,17.99587463506,0.04045359790325,22.35552108386865
35,0.6914999932051,0.212960511446,17.98575042852,0.04130075871944,22.823680220988102
36,0.7034999877214,0.2231171429157,17.97559379705,0.05423639714718,29.972189935655795
37,0.7169999927282,0.2334492504597,17.96526168951,0.07106111943722,39.269890347490026
38,0.7290000021458,0.2437889873981,17.95492195257,0.07916162908077,43.7464047618461
39,0.7395000010729,0.2539456188679,17.9447653211,0.08091007173061,44.71263146474446
40,0.7494999915361,0.2640469372272,17.93466400274,0.08315645158291,45.95402888681247
41,0.7594999969006,0.2741406261921,17.92457031377,0.08485935628414,46.8950903479763
42,0.7699999958277,0.2844765484333,17.91423439153,0.0889634937048,49.16312422862373
43,0.7804999947548,0.2946083843708,17.9041025556,0.09641169011593,53.27915643678572
44,0.7909999936819,0.304980546236,17.89373039373,0.1048326343298,57.93274982962775
45,0.8009999990463,0.315463334322,17.88324760564,0.1102771610022,60.94151140153098
46,0.8104999959469,0.3258850872517,17.87282585271,0.1149358600378,63.51600785949343
47,0.8194999992847,0.3359291851521,17.86278175481,0.1178917735815,65.14950873391057
48,0.8289999961853,0.3463776409626,17.852333299,0.1201115697622,66.37621545201792
49,0.8390000015497,0.3567765057087,17.84193443426,0.1248589605093,68.99972484156545
50,0.8495000004768,0.3669818043709,17.8317291356,0.133540481329,73.7973184249351
51,0.8604999929667,0.3773844838142,17.82132645615,0.1425469815731,78.77450257009787
52,0.8709999918938,0.3875144124031,17.81119652756,0.151492446661,83.71795738605364
53,0.8814999908209,0.3979781270027,17.80073281296,0.1577657163143,87.18470000643931
54,0.8914999961853,0.4081137776375,17.79059716233,0.1630776822567,90.12020569140027
55,0.9015000015497,0.4182227253914,17.78048821458,0.1682008206844,92.95136126401312
56,0.9120000004768,0.4286521077156,17.77005883225,0.1752847135067,96.86607153832645
57,0.922499999404,0.4389536976814,17.75975724229,0.1814940869808,100.29750376716919
58,0.9329999983311,0.4492438435555,17.74946709641,0.1899455487728,104.96796182463132
59,0.9434999972582,0.4597418904305,17.73896904954,0.1969531476498,108.84051043740826
60,0.9534999877214,0.4699347615242,17.72877617844,0.2038310468197,112.64138422552364
61,0.9634999930859,0.4801924824715,17.7185184575,0.211008399725,116.6077425352232
62,0.9734999984503,0.4903586506844,17.70835228928,0.2186759412289,120.84498952032024
63,0.9834999889135,0.5003684163094,17.69834252366,0.2264350354671,125.1328304992278
64,0.9939999878407,0.5107558369637,17.687955103,0.2344191968441,129.54504837975887
65,1.004500001669,0.521101295948,17.67760964402,0.2434638440609,134.54331335571743
66,1.015000000596,0.5315116047859,17.66719933518,0.2513831555843,138.91969382389007
67,1.024999991059,0.5415900349617,17.657120905,0.2585338056087,142.87129555202702
68,1.034999996424,0.5517485737801,17.64696236619,0.265545219183,146.74595224790014
69,1.045000001788,0.5619032979012,17.63680764207,0.2732299268246,150.99268560684703
70,1.054999992251,0.5719130635262,17.62679787644,0.2814105451107,155.51346976580803
71,1.065499991179,0.5822852253914,17.61642571458,0.2893165051937,159.88247194322696
72,1.075999990106,0.5926116108894,17.60609932908,0.299064964056,165.2696782469181
73,1.086499989033,0.6030333638191,17.59567757615,0.3077872693539,170.08981020288132
74,1.096499994397,0.6130579710007,17.58565296897,0.3162297308445,174.75529450181173
75,1.106499999762,0.6232050657272,17.57550587424,0.3244332373142,179.28872715923916
76,1.116499990225,0.6334170103073,17.56529392966,0.3341473639011,184.6569607152306
77,1.126499995589,0.6436098814011,17.55510105857,0.3412941992283,188.60645436032667
78,1.136500000954,0.6536844968796,17.54502644309,0.3506783545017,193.79233873013044
79,1.146999999881,0.6641710996628,17.5345398403,0.3599671423435,198.92552102302756
80,1.157499998808,0.6746157407761,17.52409519919,0.3690403997898,203.9395966220692
81,1.167999997735,0.6850641965866,17.51364674338,0.3776730597019,208.71018862568712
82,1.178499996662,0.6955012083054,17.50320973166,0.3882283270359,214.5432545002097
83,1.188500002027,0.7055186033249,17.49319233664,0.3963116705418,219.0102825407436
84,1.19849999249,0.7155741453171,17.48313679465,0.4058903753757,224.30367914745685
85,1.208499997854,0.7256907224655,17.4730202175,0.4157780706882,229.76783048346704
86,1.218499988317,0.7357958555222,17.46291508444,0.4254712164402,235.12446958256777
87,1.228499993682,0.7459124326706,17.4527985073,0.4339512884617,239.81073826311294
88,1.238499999046,0.7559412717819,17.44276966818,0.4440793097019,245.4076988329655
89,1.248999997973,0.7664049863815,17.43230595359,0.4540165960789,250.89925524900474
90,1.259499996901,0.7767885923386,17.42192234763,0.4643429815769,256.60583613886297
91,1.269999995828,0.7871836423874,17.41152729758,0.4748009741306,262.3851458949032
92,1.280499994755,0.7975672483444,17.40114369162,0.4850873053074,268.0695919125004
93,1.290999993682,0.8079546689987,17.39075627097,0.4951047003269,273.60541807311694
94,1.301499992609,0.8183687925339,17.38034214743,0.5057877898216,279.5091212001121
95,1.311499997973,0.8283747434616,17.3703361965,0.5142144560814,284.1658767175873
96,1.321499988437,0.838418841362,17.3602920986,0.5229958891869,289.01868396123706
97,1.331499993801,0.8484324216843,17.35027851828,0.5335931181908,294.8749387495964
98,1.341999992728,0.8588999509811,17.33981098899,0.5446328520775,300.9757311748999
99,1.352499991655,0.8692480921745,17.32946284779,0.5554693937302,306.964235237568
100,1.362999990582,0.8795115351677,17.3191994048,0.5680845975876,313.9356659737387
101,1.37349998951,0.8897768855095,17.30893405446,0.5799635648727,320.5002366759976
102,1.383999988437,0.9001871943474,17.29852374562,0.592117190361,327.21658935985386
103,1.393999993801,0.9102465510368,17.28846438893,0.6039007902145,333.7284579852062
104,1.403999999166,0.9203860163689,17.2783249236,0.6147459745407,339.7217381736002
105,1.413999989629,0.9304644465446,17.26824649342,0.6268614530563,346.4170100266606
106,1.423999994993,0.9404665827751,17.25824435719,0.6391981840134,353.23455069824837
107,1.43449999392,0.9509608149529,17.24775012501,0.6511076688766,359.8159860651108
108,1.444999992847,0.9614283442497,17.23728259572,0.6632956266403,366.55131149666664
109,1.454999998212,0.9714342951775,17.22727664479,0.6749533414841,372.99361338050886
110,1.464999988675,0.9815317988396,17.21717914113,0.6866453886032,379.45488801199537
111,1.47499999404,0.9916064143181,17.20710452565,0.698074221611,385.770704911173
112,1.485499992967,1.002100586891,17.19661035308,0.711185336113,393.01618644741313
113,1.495999991894,1.012594819069,17.1861161209,0.7246817350388,400.47458437443123
114,1.505999997258,1.02262365818,17.17608728179,0.736877322197,407.2141259721242
115,1.515999987721,1.032629609108,17.16608133086,0.7475203275681,413.0956777574164
116,1.52650000155,1.043120026588,17.15559091338,0.7610548734665,420.5751565151751
117,1.537000000477,1.053545594215,17.14516534575,0.7741659879684,427.8206380513598
118,1.547499999404,1.063902497292,17.13480844268,0.7886160612106,435.80605674766565
119,1.557999998331,1.074225068092,17.12448587187,0.8031576871872,443.84206943783715
120,1.568499997258,1.084620118141,17.11409082183,0.8175238370895,451.78111030641423
121,1.578499987721,1.094660401344,17.10405053862,0.8301275968552,458.7462167934069
122,1.588499993086,1.104796051979,17.09391488799,0.8421057462692,465.3655976556687
123,1.59849999845,1.114928007126,17.08378293284,0.8541875481606,472.04225908786776
124,1.608499988914,1.124960660934,17.07375027903,0.86815315485,479.75995123333735
125,1.618999987841,1.135300397873,17.06341054209,0.8833280205727,488.1459057143216
126,1.629500001669,1.145550489426,17.05316045054,0.8984227776527,496.4875904506181
127,1.640000000596,1.155846357346,17.04286458262,0.9131436944008,504.622683045425
128,1.650499999523,1.166260480881,17.03245045909,0.9273954033852,512.4984814217252
129,1.660499989986,1.176270246506,17.02244069346,0.9410329461098,520.0348784225828
130,1.670499995351,1.186398267746,17.01231267222,0.9553609490395,527.9528384604192
131,1.680500000715,1.196434736252,17.00227620371,0.9692807793617,535.645233608956
132,1.690999999642,1.206829786301,16.99188115367,0.9867063164711,545.2749571054569
133,1.701499998569,1.217247724533,16.98146321543,1.003342270851,554.4683403436943
134,1.711499989033,1.227288007736,16.97142293223,1.017929673195,562.5296500309092
135,1.721499994397,1.237370252609,16.96134068736,1.031475663185,570.0154530377905
136,1.731499999762,1.24748301506,16.95122792491,1.046337723732,578.2285447064922
137,1.741499990225,1.257580518723,16.94113042124,1.060650467873,586.1380724122205
138,1.751999989152,1.268028974533,16.93068196543,1.077763199806,595.5949330960519
139,1.762499988079,1.278439283371,16.9202716566,1.095501542091,605.3975194047802
140,1.772499993443,1.288494825363,16.9102161146,1.112080216408,614.5592484584649
141,1.782499998808,1.298607587814,16.90010335215,1.128246903419,623.4933045390906
142,1.792499989271,1.308754682541,16.88995625743,1.142674088478,631.466074737151
143,1.802499994636,1.318859815598,16.87985112437,1.157009720802,639.388250941014
144,1.812999993563,1.329304456711,16.86940648326,1.173081040382,648.2696049450645
145,1.82349999249,1.339627027512,16.85908391245,1.191685318947,658.5507261126977
146,1.833999991417,1.350060224533,16.84865071543,1.208080887794,667.6112671779878
147,1.843999996781,1.36008143425,16.83862950572,1.224609971046,676.7455911513671
148,1.854000002146,1.370124459267,16.8285864807,1.24118745327,685.9066614290325
149,1.863999992609,1.380141854286,16.81856908568,1.257720351219,695.0430934853423
150,1.874499991536,1.390552163124,16.80815877684,1.275580763817,704.9131384528162
151,1.884999990463,1.400931954384,16.79777898558,1.294989943504,715.6390651491524
152,1.89549998939,1.411418557167,16.7872923828,1.313151717186,725.6756486797309
153,1.905499994755,1.421447396278,16.77726354369,1.330100417137,735.0418617914773
154,1.915500000119,1.431460976601,16.76724996337,1.348109602928,744.994121998762
155,1.925999999046,1.441886544228,16.75682439574,1.365466475487,754.5859000000847
156,1.936499997973,1.452130913734,16.74658002623,1.384318709373,765.0040465670342
157,1.946999996901,1.46233522892,16.73637571105,1.403586745262,775.651974189973
158,1.957499995828,1.472684502602,16.72602643736,1.421637892723,785.6274233111496
159,1.967999994755,1.483152031898,16.71555890807,1.439872145653,795.7040604201683
160,1.978499993682,1.493646264076,16.70506467589,1.458426833153,805.957776507496
161,1.988999992609,1.504098534584,16.69461240538,1.476172804832,815.764578982085
162,1.999499991536,1.514451622963,16.684259317,1.49537217617,826.374561109514
163,2.009999990463,1.524858117104,16.67385282286,1.515616774559,837.562158000207
164,2.019999995828,1.534967064857,16.66374387511,1.533072829247,847.2087461615878
165,2.030000001192,1.545243859291,16.65346708068,1.5507158041,856.9586303931883
166,2.039999991655,1.555532097816,16.64317884215,1.569224715233,867.1870494836936
167,2.04999999702,1.565690636635,16.63302030333,1.587409377098,877.236281512407
168,2.060499995947,1.576120018959,16.62259092101,1.607364058495,888.2636640893392
169,2.070999994874,1.586431145668,16.6122797943,1.627215743065,899.2341284227301
170,2.081499993801,1.596761345863,16.6019495941,1.648272871971,910.8707470085396
171,2.091499999166,1.606805443764,16.5919054962,1.66728913784,921.3795411481267
172,2.101499989629,1.617032527924,16.58167841204,1.686522006989,932.0080348804285
173,2.111499994993,1.627309322357,16.57140161761,1.704691410065,942.0488345768676
174,2.121500000358,1.637467861176,16.56124307879,1.725012302399,953.2785931289313
175,2.131999999285,1.647954463959,16.55075647601,1.744867801666,964.2511655452527
176,2.142499998212,1.65827703476,16.54043390521,1.765680789948,975.7528668146763
177,2.152999997139,1.668694972992,16.53001596697,1.786539554596,987.2798650803695
178,2.162999987602,1.678723812103,16.51998712786,1.806013584137,998.0416291892853
179,2.172999992967,1.688809871674,16.50990106829,1.82554101944,1008.8329064614368
180,2.182999998331,1.698941707611,16.49976923236,1.846491336823,1020.4104987213275
181,2.192999988794,1.70908498764,16.48962595233,1.865740299225,1031.0478859285092
182,2.203499987721,1.719556331635,16.47915460833,1.886671543121,1042.6149377726429
183,2.21400000155,1.729861736298,16.46884920367,1.908045291901,1054.4265272543837
184,2.224500000477,1.740113735199,16.45859720477,1.929403781891,1066.2296844032978
185,2.234999999404,1.750405788422,16.44830515154,1.95069360733,1077.9948960567021
186,2.245499998331,1.76080083847,16.4379101015,1.972033023834,1089.7875127904117
187,2.255499988794,1.770806789398,16.42790415057,1.991571903229,1100.5851143119069
188,2.265499994159,1.780892848969,16.417818091,2.011282444,1111.4775795713479
189,2.275499999523,1.79096364975,16.40774729022,2.030157566071,1121.9083746375372
190,2.28599999845,1.801427364349,16.39728357562,2.04994058609,1132.8408934754186
191,2.296499997377,1.811769008636,16.38694193133,2.071302890778,1144.6461587078156
192,2.306999996305,1.822083950043,16.37662698992,2.091986179352,1156.0761851520801
193,2.317499995232,1.832505702972,16.36620523699,2.114210605621,1168.3578771593466
194,2.327500000596,1.84259557724,16.35611536273,2.134840488434,1179.7583904409282
195,2.337499991059,1.852719783783,16.34599115618,2.155077457428,1190.9417711652077
196,2.347499996424,1.862809658051,16.33590128192,2.175676822662,1202.3254197816884
197,2.357500001788,1.872842431068,16.3258685089,2.197197675705,1214.2183022169236
198,2.368000000715,1.883302330971,16.315408609,2.219948530197,1226.7909096890287
199,2.378499999642,1.893743157387,16.30496778258,2.244026899338,1240.0971300722977
200,2.388499990106,1.903848290443,16.29486264952,2.264508008957,1251.415428113516
201,2.39849999547,1.914060235023,16.28465070494,2.285710096359,1263.1321538562056
202,2.408500000834,1.924279808998,16.27443113097,2.305470228195,1274.052024195952
203,2.418499991298,1.934404015541,16.26430692443,2.325997114182,1285.3956192345452
204,2.428999990225,1.944894433022,16.25381650695,2.346485853195,1296.7181334416239
205,2.439499989152,1.955278038979,16.24343290099,2.369747877121,1309.5732240462937
206,2.449999988079,1.965676903725,16.23303403624,2.392521619797,1322.158480017086
207,2.460500001907,1.976148247719,16.22256269225,2.415066480637,1334.6172510032143
208,2.470499992371,1.986184716225,16.21252622374,2.436192274094,1346.2918150845337
209,2.480499997735,1.996240258217,16.20247068175,2.457882642746,1358.2783754611007
210,2.490499988198,2.006292104721,16.19241883525,2.479782819748,1370.3808804071275
211,2.500499993563,2.01632475853,16.18238618144,2.501374006271,1382.3126306236363
212,2.510499998927,2.026349782944,16.17236115702,2.523766279221,1394.6870782870233
213,2.520999997854,2.036786794662,16.1619241453,2.547631025314,1407.8752460173496
214,2.531499996781,2.047162771225,16.15154816874,2.570679426193,1420.6122839696288
215,2.541999995708,2.057489156723,16.14122178324,2.593720197678,1433.3451057560474
216,2.552499994636,2.067785024643,16.13092591532,2.617211103439,1446.3266813448288
217,2.562999993563,2.078117132187,16.12059380778,2.639733076096,1458.7728038328219
218,2.57349999249,2.088577032089,16.11013390788,2.663300275803,1471.7965410835266
219,2.583499997854,2.098624944687,16.10008599528,2.684960126877,1483.7662367955452
220,2.593499988317,2.108661413193,16.09004952677,2.707482099533,1496.2123592829857
221,2.603499993682,2.118688106537,16.08002283343,2.730077266693,1508.698930614589
222,2.613499999046,2.128819942474,16.06989099749,2.753362178802,1521.5666697173933
223,2.62349998951,2.139016628265,16.0596943117,2.774732112885,1533.376151116204
224,2.633499994874,2.149133205414,16.04957773455,2.797917842865,1546.1890800589501
225,2.643500000238,2.159192562103,16.03951837786,2.820729732513,1558.7954168601518
226,2.653499990702,2.169244289398,16.02946665057,2.844930171967,1572.1690959021664
227,2.663499996066,2.179292201996,16.01941873797,2.867070674896,1584.4044100816488
228,2.673500001431,2.189309597015,16.00940134295,2.89053106308,1597.3691210064346
229,2.683499991894,2.199391841888,15.99931909808,2.913709163666,1610.1778337833202
230,2.693499997258,2.209550380707,15.98916055926,2.936711788177,1622.8895747382244
231,2.703499987721,2.219743251801,15.97896768817,2.957967281342,1634.6358136447027
232,2.713499993086,2.229871273041,15.96883966693,2.981618404388,1647.7059287226386
233,2.72349999845,2.239938259125,15.95877268084,3.005055904388,1660.657991148737
234,2.733999997377,2.250436306,15.94827463397,3.030232906342,1674.5713394585057
235,2.744499996305,2.260930538177,15.93778040179,3.055997371674,1688.8093325616571
236,2.754500001669,2.270955562592,15.92775537738,3.08015203476,1702.1577146062968
237,2.764499992132,2.281003475189,15.91770746478,3.10308599472,1714.831510065691
238,2.774499997497,2.29107427597,15.907636664,3.125218868256,1727.0626080798654
239,2.78449998796,2.301129817963,15.897581122,3.147473812103,1739.3611647516802
240,2.795000001788,2.311574459076,15.88713648089,3.170445919037,1752.0560410425887
