,time,travel,position,force,stress
0,0.0,0.0,19.72378926198,-0.01124528888613,-6.214386502513692
1,0.0,0.0,19.72378739049,-0.01120654586703,-6.192976283763453
2,0.0,0.0,19.72378113293,-0.01210159529001,-6.687599686467674
3,0.0,0.0,19.72377621322,-0.01222973782569,-6.758413984987819
4,0.0,0.0,19.72377579599,-0.01228922326118,-6.79128690547465
5,0.0,0.0,19.71683840967,-0.0109249651432,-6.037368769607418
6,0.0,0.0,19.71682926762,-0.01105198264122,-6.107561348319391
7,0.008000001311302,-3.048218786716e-06,19.71683231584,-0.01163825392723,-6.431547366240689
8,0.01100000739098,-2.506771124899e-06,19.71683177439,-0.01192411780357,-6.589521841834165
9,0.01299999654293,-1.258368138224e-05,19.7168418513,-0.0122455060482,-6.767127841085872
10,0.01399999856949,-8.087255991995e-06,19.71683735487,-0.01239427924156,-6.849343081095631
11,0.1140000075102,-4.611544136424e-05,19.71687538306,-0.01019025966525,-5.631354851092015
12,0.2145000100136,-1.494587922934e-05,19.7168442135,-0.01277351565659,-7.058917213222276
13,0.3149999976158,1.942271774169e-05,19.7168098449,-0.0116435661912,-6.434483036622058
14,0.4150000065565,0.002382791368291,19.71444647625,-0.01230217702687,-6.798445432701102
15,0.4549999982119,0.01250222977251,19.70432703785,-0.0002800916845445,-0.15478463928539238
16,0.4695000052452,0.02250531874597,19.69432394887,0.01673345826566,9.247265965283761
17,0.4785000085831,0.03263906389475,19.68419020372,0.01590724848211,8.79068481569047
18,0.4860000014305,0.04313711076975,19.67369215685,0.009223898872733,5.097323264497286
19,0.4930000007153,0.05388692766428,19.66294233995,0.005551775917411,3.068029792342023
20,0.4995000064373,0.0642934218049,19.65253584581,0.005381425842643,2.973890707427436
21,0.5059999972582,0.07484868913889,19.64198057848,0.003768285503611,2.0824349475042463
22,0.5125000029802,0.08523992449045,19.63158934313,0.002519046654925,1.392078913230617
23,0.519500002265,0.0959439650178,19.6208853026,-0.003734195837751,-2.0635962710112947
24,0.5270000100136,0.1061559095979,19.61067335802,0.0003360266273376,0.18569548177526823
25,0.5355000048876,0.1166577711701,19.60017149645,0.01741061173379,9.621475415577892
26,0.5435000061989,0.1267133057117,19.59011596191,0.0254386421293,14.057936251471641
27,0.5509999990463,0.1367192566395,19.58011001098,0.02755436860025,15.227131828145476
28,0.5585000067949,0.1471715271473,19.56965774047,0.02857181988657,15.789397111385181
29,0.5659999996424,0.1578831970692,19.55894607055,0.03062412701547,16.92354580689619
30,0.5729999989271,0.167976886034,19.54885238158,0.02999818883836,16.577639018851098
31,0.5805000066757,0.1784893870354,19.53833988058,0.0282254870981,15.598006225135874
32,0.588500007987,0.188838660717,19.5279906069,0.02765137515962,15.280739722020728
33,0.5974999964237,0.1988789439201,19.5179503237,0.03163964301348,17.48474160853574
34,0.6085000038147,0.2090336680412,19.50779559958,0.04210335761309,23.26721348919812
35,0.6215000003576,0.2193123698235,19.4975168978,0.0554910376668,30.66553104850616
36,0.6340000033379,0.229423224926,19.48740604269,0.06790406256914,37.52523338159715
37,0.6450000107288,0.2397686839104,19.47706058371,0.07178027182817,39.66730929837908
38,0.6550000011921,0.2502858042717,19.46654346335,0.0734124854207,40.5693053450212
39,0.66400000453,0.2602879405022,19.45654132712,0.07598597556353,41.99147089095752
40,0.6730000078678,0.2704274058342,19.44640186178,0.07644886523485,42.24727359684906
41,0.6825000047684,0.2807804942131,19.43604877341,0.07884687930346,43.57246732123513
42,0.6925000101328,0.291061103344,19.42576816427,0.08443827182055,46.662390091588975
43,0.7030000090599,0.3013207316399,19.41550853598,0.09184259921312,50.75417934436065
44,0.7140000015497,0.311771094799,19.40505817282,0.09830851107836,54.32738016015746
45,0.7250000089407,0.3221508860588,19.39467838156,0.1069201901555,59.0863777068515
46,0.7355000078678,0.3322808146477,19.38454845297,0.1143407300115,63.18712631272935
47,0.7460000067949,0.342611014843,19.37421825278,0.1179718449712,65.19375789179595
48,0.756500005722,0.3529679179192,19.3638613497,0.1246122792363,68.86340350834965
49,0.7670000046492,0.3633362650871,19.35349300253,0.1298899054527,71.77993232825047
50,0.7775000035763,0.3737275004387,19.34310176718,0.1362547278404,75.2972689425019
51,0.7880000025034,0.384172141552,19.33265712607,0.1433328986168,79.20881709219863
52,0.7980000078678,0.3942124247551,19.32261684286,0.149741590023,82.75039666180726
53,0.8079999983311,0.4043671488762,19.31246211874,0.1547960639,85.54360673907603
54,0.8180000036955,0.4145218729973,19.30230739462,0.1620802283287,89.56899137491546
55,0.8280000090599,0.4246041178703,19.29222514975,0.1672138571739,92.40594417600128
56,0.838500007987,0.4350911080837,19.28173815953,0.1739057302475,96.10401597533114
57,0.8490000069141,0.4455395638943,19.27128970372,0.1819356679916,100.5415308527398
58,0.8589999973774,0.455545514822,19.2612837528,0.1882699728012,104.04200280238774
59,0.8690000027418,0.4655629098415,19.25126635778,0.1942228078842,107.33166644429852
60,0.8790000081062,0.4756260812283,19.24120318639,0.2024587392807,111.88301780790515
61,0.8889999985695,0.4856968820095,19.23113238561,0.2093786001205,115.70708050985725
62,0.8994999974966,0.4961834847927,19.22064578283,0.2160047292709,119.36882081489705
63,0.9099999964237,0.5065136551857,19.21031561243,0.2246354818344,124.13835877699452
64,0.920500010252,0.5168324112892,19.19999685633,0.2334741353989,129.0227872668104
65,0.9310000091791,0.5272045731544,19.18962469446,0.2413057088852,133.35068182421344
66,0.9415000081062,0.5376568436623,19.17917242396,0.2494195699692,137.83457452935082
67,0.9514999985695,0.5477390885353,19.16909017908,0.2577852010727,142.45760071756376
68,0.9615000039339,0.5578785538673,19.15895071375,0.264998793602,146.44398581648343
69,0.9715000092983,0.5679531693459,19.14887609827,0.271647810936,150.11837461998968
70,0.9820000082254,0.578367292881,19.13846197474,0.2799810171127,154.72348210202344
71,0.9925000071526,0.5887089371681,19.12812033045,0.2882264852524,159.28010367334284
72,1.00300000608,0.5989800095558,19.11784925806,0.296923995018,164.0865330892639
73,1.013500005007,0.6093292832375,19.10749998438,0.304435133934,168.23734866819206
74,1.024000003934,0.6197548508644,19.09707441675,0.3129876852036,172.96367092723267
75,1.034500002861,0.6302300095558,19.08659925806,0.3200572729111,176.87047588997686
76,1.045000001788,0.6407318711281,19.07609739649,0.3288997411728,181.75701246283367
77,1.055500000715,0.651157438755,19.06567182886,0.3381675481796,186.87860029878476
78,1.065999999642,0.6615334153175,19.0552958523,0.3481677770615,192.4049400856067
79,1.076499998569,0.6719627976418,19.04486646998,0.3574508428574,197.53496025388722
80,1.086999997497,0.6824482679367,19.03438099968,0.3663590550423,202.45782832103407
81,1.097000002861,0.692477107048,19.02435216057,0.3746502995491,207.0397468892311
82,1.107000008225,0.7025021314621,19.01432713616,0.3835938572884,211.9821476636664
83,1.116999998689,0.7125500440598,19.00427922356,0.3929722905159,217.16486990885357
84,1.127000004053,0.7225865125656,18.99424275505,0.4029095768929,222.65642632489283
85,1.13750000298,0.7330578565598,18.98377141106,0.4132607579231,228.37670975473793
86,1.148000001907,0.7434834241867,18.97334584343,0.4251435399055,234.94338854009303
87,1.158500000834,0.7539280653,18.96290120232,0.4368889927864,241.43417633470474
88,1.168999999762,0.7643841505051,18.95244511711,0.4460213780403,246.48092722143295
89,1.179499998689,0.774866938591,18.94196232903,0.4561093449593,252.05575291902448
90,1.189500004053,0.7848995923996,18.93192967522,0.4668801426888,258.0079254874026
91,1.199500009418,0.7949856519699,18.92184361565,0.4763405919075,263.23597151874276
92,1.209499999881,0.805083155632,18.91174611199,0.4863370060921,268.76020322246853
93,1.219500005245,0.8151577711105,18.90167149651,0.4980557560921,275.23623443551764
94,1.22950001061,0.8252094984055,18.89161976921,0.5077355504036,280.5854952438094
95,1.240000009537,0.8356999158859,18.88112935173,0.5178101658821,286.1529426505921
96,1.250500008464,0.8461750745773,18.87065419304,0.5276311039925,291.5802025327787
97,1.260499998927,0.8561810255051,18.86064824211,0.5379422307014,297.27835109030747
98,1.270999997854,0.8666332960129,18.85019597161,0.5482380986214,302.9680673156175
99,1.281499996781,0.8770664930344,18.83976277458,0.5610249638557,310.0343617902312
100,1.291500002146,0.8870915174484,18.82973775017,0.5721104741096,316.1604512124676
101,1.30150000751,0.8971852064133,18.81964406121,0.5832570195198,322.3202699639662
102,1.311499997973,0.9072140455246,18.80961522209,0.5929825901985,327.69482776919085
103,1.321999996901,0.9176472425461,18.79918202507,0.6060822606087,334.9339850561977
104,1.332500010729,0.9279716610909,18.78885760653,0.6180167198181,341.52922177947755
105,1.343000009656,0.9382465481758,18.77858271944,0.631730556488,349.1077804418716
106,1.353500008583,0.9485958218575,18.76823344576,0.6450896263123,356.4902873781463
107,1.363499999046,0.9586513638496,18.75817790377,0.6572775840759,363.2256128096469
108,1.373500004411,0.9688442349434,18.74798503268,0.6683459281921,369.3422158580335
109,1.383500009775,0.9790294766426,18.73779979098,0.6805281639099,376.0743791649728
110,1.393500000238,0.9890430569649,18.72778621065,0.6916537284851,382.22260345952543
111,1.403999999166,0.9993808865547,18.71744838106,0.7052721977234,389.7484600450128
112,1.414499998093,1.009585142136,18.70724412548,0.7196879386902,397.7149059936189
113,1.42499999702,1.019890546799,18.69693872082,0.7346529960632,405.9849159053091
114,1.435000002384,1.029896497726,18.68693276989,0.746798992157,412.6970524230282
115,1.445000007749,1.04000544548,18.67682382214,0.7602877616882,420.15123418385406
116,1.454999998212,1.050133466721,18.6666958009,0.7730555534363,427.2069882431527
117,1.465000003576,1.060250043869,18.65657922375,0.7860903739929,434.41030811780115
118,1.475000008941,1.070294141769,18.64653512585,0.7997126579285,441.9382727863847
119,1.485500007868,1.080746412277,18.63608285534,0.8146090507507,450.1703372026755
120,1.496000006795,1.091191053391,18.62563821423,0.82870054245,457.95759608976584
121,1.506500005722,1.101616621017,18.6152126466,0.8442034721375,466.52484571536206
122,1.517000004649,1.112065076828,18.60476419079,0.8582644462585,474.2952399377383
123,1.527000010014,1.122090101242,18.59473916638,0.8706622123718,481.1465099385331
124,1.537000000477,1.132214307785,18.58461495983,0.884795665741,488.9569577394601
125,1.547000005841,1.142445325851,18.57438394177,0.897319316864,495.877794481765
126,1.556999996305,1.152691602707,18.56413766491,0.9103236198425,503.06424969180995
127,1.567000001669,1.16289973259,18.55392953503,0.9235911369324,510.3961626342189
128,1.577000007033,1.172970533371,18.54385873425,0.9377551078796,518.2234750996942
129,1.58750000596,1.183390974998,18.53343829262,0.9533496499062,526.8413516579848
130,1.598000004888,1.193755507469,18.52307376015,0.9685245156288,535.2273061389138
131,1.608500003815,1.204169631004,18.51265963661,0.9839358925819,543.7439617706442
132,1.619000002742,1.214595198631,18.50223406899,0.9984546303749,551.7673259623493
133,1.629500001669,1.225009322166,18.49181994545,1.013274669647,559.95719577822
134,1.640000000596,1.235492110252,18.48133715737,1.028102397919,568.151314699443
135,1.65000000596,1.245509505272,18.47131976235,1.043422222137,576.6173763369209
136,1.659999996424,1.255587935448,18.46124133217,1.058501720428,584.9506287409433
137,1.670000001788,1.265788435936,18.45104083168,1.072513103485,592.6936178835667
138,1.680000007153,1.275893568993,18.44093569863,1.086986064911,600.6916850784495
139,1.69050000608,1.286330580711,18.43049868691,1.102897167206,609.4844995933455
140,1.701000005007,1.296645522118,18.4201837455,1.119540691376,618.6820660590571
141,1.711500003934,1.306983351707,18.40984591591,1.136142253876,627.8564436108767
142,1.722000002861,1.317439436913,18.39938983071,1.153819561005,637.6253005905085
143,1.732000008225,1.327617049217,18.3892122184,1.169585704803,646.3380079479715
144,1.741999998689,1.33786714077,18.37896212685,1.18302488327,653.7647846289341
145,1.752000004053,1.348029494286,18.36879977333,1.196391582489,661.1515077314563
146,1.76250000298,1.358413100243,18.35841616738,1.212466716766,670.0349698184372
147,1.773000001907,1.368636488914,18.3481927787,1.229716777802,679.5677214938411
148,1.783500000834,1.378981947899,18.33784731972,1.246993541718,689.1152297503102
149,1.793500006199,1.389071822166,18.32775744545,1.263587474823,698.2853911357164
150,1.803499996662,1.399287581444,18.31754168617,1.279864788055,707.2805816257438
151,1.813500002027,1.409564375877,18.30726489174,1.294524669647,715.381944891399
152,1.823500007391,1.419719099998,18.29711016762,1.309672832489,723.7531427909312
153,1.833499997854,1.429730892181,18.28709837544,1.326972007751,733.3130360352379
154,1.843999996781,1.440152645111,18.27667662251,1.345938682556,743.7944250950721
155,1.85450001061,1.450639247894,18.26619001972,1.36377620697,753.6518215638584
156,1.864500001073,1.460710048676,18.25611921894,1.381613731384,763.5092180326448
157,1.874500006437,1.470811367035,18.24601790058,1.398951530457,773.0904556187629
158,1.884499996901,1.480889797211,18.23593947041,1.414328575134,781.588138502407
159,1.894500002265,1.490891933441,18.22593733418,1.430022239685,790.2607922819823
160,1.905000001192,1.501348018646,18.21548124897,1.449271202087,800.898179489164
161,1.915000006557,1.511350154877,18.20547911274,1.466807365417,810.5890373948457
162,1.92499999702,1.521462917328,18.19536635029,1.484648704529,820.4485419471151
163,1.935000002384,1.531648159027,18.18518110859,1.503085136414,830.6369074591803
164,1.945000007749,1.541738033295,18.17509123432,1.52036190033,840.1844157156494
165,1.955500006676,1.552178859711,18.16465040791,1.538275718689,850.0839738458062
166,1.966000005603,1.56253194809,18.15429731953,1.556433677673,860.1184492929017
167,1.97650000453,1.572822093964,18.14400717366,1.574000358582,869.8261718636843
168,1.987000003457,1.583072185516,18.1337570821,1.591982841492,879.7636754893512
169,1.997500002384,1.593410015106,18.12341925251,1.611399650574,890.4938183521008
170,2.008000001311,1.603850841522,18.1129784261,1.630228996277,900.8993164209153
171,2.018500000238,1.614268779755,18.10256048786,1.6488904953,911.212058834162
172,2.028999999166,1.624633312225,18.09219595539,1.668066978455,921.809392463456
173,2.039499998093,1.635032176971,18.08179709065,1.687823295593,932.7271547197194
174,2.049500003457,1.645102977753,18.07172628987,1.705729484558,942.6224966840156
175,2.059500008821,1.655292034149,18.06153723347,1.723658561707,952.5304871469991
176,2.069499999285,1.665420055389,18.05140921223,1.742960929871,963.1973875174167
177,2.079500004649,1.675490856171,18.04133841145,1.761973381042,973.7040735735206
178,2.090000003576,1.685989141464,18.03084012615,1.780640244484,984.0197804791306
179,2.100500002503,1.696353673935,18.02047559368,1.800747513771,995.131486378804
180,2.111000001431,1.706640005112,18.01018926251,1.820912003517,1006.2748135246434
181,2.121500000358,1.717054128647,17.99977513897,1.840893387794,1017.3169526826406
182,2.131500005722,1.727102041245,17.98972722637,1.860336899757,1028.0618521270083
183,2.141500011086,1.737245321274,17.97958394634,1.878903031349,1038.3218924636797
184,2.15150000155,1.747354269028,17.96947499859,1.898514389992,1049.1595475636152
185,2.161500006914,1.757440328598,17.95938893902,1.917912125587,1059.8791500106076
186,2.171499997377,1.767503499985,17.94932576763,1.937935471535,1070.9444780830495
187,2.181500002742,1.777589559555,17.93923970806,1.956825852394,1081.3837054809608
188,2.191500008106,1.787610769272,17.92921849835,1.978256821632,1093.226916208315
189,2.202000007033,1.798085927963,17.91874333966,1.99985563755,1105.1628825912373
190,2.21250000596,1.808561086655,17.90826818096,2.021145582199,1116.9281601226303
191,2.223000004888,1.818990468979,17.89783879864,2.04091334343,1127.85224662879
192,2.233500003815,1.829393148422,17.8874361192,2.063534498215,1140.3531792762888
193,2.243500009179,1.839452505112,17.87737676251,2.082096815109,1150.611111529477
194,2.253499999642,1.84961104393,17.86721822369,2.100342512131,1160.6940728878396
195,2.263500005007,1.859811544418,17.8570177232,2.119110822678,1171.0658416275578
196,2.273500010371,1.869973897934,17.84685536968,2.139271497726,1182.207060689914
197,2.283500000834,1.880037069321,17.8367921983,2.158928632736,1193.070012786672
198,2.293999999762,1.890397787094,17.82643148052,2.181267499924,1205.4149472868232
199,2.304499998689,1.90069937706,17.81612989056,2.204140424728,1218.0550134171212
200,2.314999997616,1.911105871201,17.80572339642,2.225876569748,1230.066870791063
201,2.32500000298,1.92120718956,17.79562207806,2.245476484299,1240.8982016416549
202,2.335000008345,1.931373715401,17.78545555222,2.266367673874,1252.4431186136378
203,2.344999998808,1.941551327705,17.77527793991,2.287043333054,1263.8689288920418
204,2.355000004172,1.95164501667,17.76518425095,2.307345151901,1275.0881470283482
205,2.365500003099,1.962085843086,17.75474342453,2.330122709274,1287.675511082071
206,2.376000002027,1.972435116768,17.74439415085,2.353461027145,1300.5727633481113
207,2.386500000954,1.982860684395,17.73396858322,2.375052213669,1312.5045135651728
208,2.396500006318,1.992962002754,17.72386726486,2.396750211716,1324.495290108153
209,2.406499996781,2.003162384033,17.71366688359,2.418455839157,1336.4902828169943
210,2.416500002146,2.013397216797,17.70343205082,2.43915438652,1347.928741593533
211,2.42650000751,2.023578643799,17.69325062382,2.460936307907,1359.9658959642975
212,2.436499997973,2.033676147461,17.68315312016,2.481947660446,1371.5772175532845
213,2.446500003338,2.043704986572,17.67312428105,2.502276182175,1382.8111922717615
214,2.457000002265,2.054180145264,17.66264912236,2.524718046188,1395.2130450143484
215,2.467500001192,2.064624786377,17.65220448124,2.549231290817,1408.7595868682588
216,2.477500006557,2.074630737305,17.64219853031,2.571005582809,1420.7925250726098
217,2.48749999702,2.084667205811,17.63216206181,2.593741178513,1433.3567002129932
218,2.497500002384,2.094745635986,17.62208363163,2.617316007614,1446.3846536295587
219,2.507500007749,2.104919433594,17.61190983402,2.638815641403,1458.265809852423
220,2.517499998212,2.115219116211,17.60161015141,2.659231901169,1469.548270481614
221,2.527500003576,2.125457763672,17.59137150395,2.680380582809,1481.2354830610684
222,2.537500008941,2.135517120361,17.58131214726,2.701605558395,1492.9648573024456
223,2.548000007868,2.145862579346,17.57096668827,2.724638700485,1505.6934629224509
224,2.558500006795,2.156057357788,17.56077190983,2.747313261032,1518.2239087331855
225,2.569000005722,2.166265487671,17.55056377995,2.771872282028,1531.7957475839182
226,2.579500004649,2.176675796509,17.54015347111,2.795645475388,1544.9333213211523
227,2.589500010014,2.186838150024,17.52999111759,2.817775249481,1557.162706517013
228,2.599500000477,2.19704246521,17.51978680241,2.840602397919,1569.7774756510414
229,2.609500005841,2.207178115845,17.50965115177,2.864795207977,1583.14693852609
230,2.619499996305,2.217191696167,17.49963757145,2.887797832489,1595.858679481547
231,2.630000010133,2.227647781372,17.48918148625,2.911105632782,1608.739067083039
232,2.64050000906,2.238145828247,17.47868343937,2.934680461884,1621.7670205001568
233,2.650499999523,2.248235702515,17.4685935651,2.956454753876,1633.7999587045078
234,2.660500004888,2.258344650269,17.45848461735,2.977931499481,1645.6684664286845
235,2.670500010252,2.268358230591,17.44847103703,3.000430583954,1658.1019404179901
236,2.681000009179,2.278690338135,17.43813892948,3.02522611618,1671.8044804192482
237,2.691500008106,2.288843154907,17.42798611271,3.050410747528,1685.7220448948776
238,2.702000007033,2.298999786377,17.41782948124,3.076457500458,1700.116036145929
239,2.71250000596,2.309295654297,17.40753361332,3.100818157196,1713.5782546765458
240,2.723000004888,2.31978225708,17.39704701054,3.124652385712,1726.7495577428763
