,time,travel,position,force,stress
0,0.0,0.0,22.20360124018,-0.005093308631331,-3.3496910965658873
1,0.0,0.0,22.2036027452,-0.005001755896956,-3.289480062560265
2,0.0,0.0,22.20361965802,-0.003092976752669,-2.0341427233702065
3,0.0,0.0,22.20362027641,-0.002893897239119,-1.9032150843213949
4,0.0,0.0,22.20361732598,-0.002955409232527,-1.9436693727937884
5,0.0,0.0,22.29093902887,-0.002221526345238,-1.4610202440227278
6,0.0,0.0,22.29094108842,-0.002097623189911,-1.3795334686715917
7,0.007999986410141,4.48792707175e-06,22.29093660049,-0.002896385034546,-1.9048512204354795
8,0.01099999248981,2.517714165151e-06,22.29093857071,-0.003061370691285,-2.01335652130025
9,0.01299999654293,6.885966286063e-07,22.29094039983,-0.003109221113846,-2.044826072042478
10,0.01399999856949,-2.198503352702e-06,22.29094328693,-0.003085498465225,-2.0292245150537824
11,0.1144999861717,8.848057404975e-06,22.29093224036,-0.003891381202266,-2.5592254289070935
12,0.2144999951124,2.218914232799e-06,22.29093886951,-0.001948247896507,-1.281294558254035
13,0.3149999976158,2.06380700547e-05,22.29092045035,-0.003160512540489,-2.0785586509204483
14,0.4155000001192,3.364664007677e-05,22.29090744178,-0.002226702403277,-1.464424356512965
15,0.5159999877214,4.532455204753e-05,22.29089576387,-0.003667699638754,-2.412117881339083
16,0.5819999873638,0.01023569144309,22.28070539698,0.02116396836936,13.91880240257919
17,0.5919999927282,0.02066125907004,22.27027982935,0.05696871504188,37.46633305995378
18,0.5979999899864,0.03130044788122,22.25964064054,0.0564413331449,37.11949241614573
19,0.6030000001192,0.0424775108695,22.24846357755,0.05317499861121,34.97133833834191
20,0.6069999933243,0.05272378772497,22.2382173007,0.05471112951636,35.981597953180135
21,0.6109999865294,0.06404580920935,22.22689527921,0.0634506046772,41.72924535762858
22,0.6144999861717,0.07491006702185,22.2160310214,0.07668760418892,50.434757357608916
23,0.6174999922514,0.08504190295935,22.20589918546,0.08984068036079,59.085075909746664
24,0.6204999983311,0.09602823108435,22.19491285734,0.1011779606342,66.54120895409145
25,0.6234999895096,0.1079224571586,22.18301863126,0.1032765209675,67.92135874922066
26,0.6259999871254,0.1184510216117,22.17249006681,0.09881713986397,64.9885796345207
27,0.6284999996424,0.129376322031,22.16156476639,0.0946629345417,62.25650396651272
28,0.6309999972582,0.140606790781,22.15033429764,0.09042099118233,59.46672605758886
29,0.633499994874,0.1519898474216,22.138951241,0.08464553952217,55.66841332906506
30,0.6359999924898,0.1633881628513,22.12755292557,0.08113220334053,53.357814899099736
31,0.6384999901056,0.1746949255466,22.11624616288,0.07752349972725,50.98449664204562
32,0.6409999877214,0.185772806406,22.10516828202,0.07498005032539,49.31175885357395
33,0.6435000002384,0.1965302526951,22.09441083573,0.07934978604317,52.185581330804936
34,0.6459999978542,0.2069520056248,22.0839890828,0.0907099545002,59.65676713366838
35,0.64849999547,0.2170838415623,22.07385724686,0.1046870052814,68.84898499182714
36,0.6514999866486,0.2289399206638,22.06200116776,0.122646600008,80.66038282928798
37,0.6544999927282,0.2405366003513,22.05040448807,0.1404536068439,92.3714289433568
38,0.6574999988079,0.2519578039646,22.03898328446,0.1562311947346,102.74779713704167
39,0.6604999899864,0.2632493078709,22.02769178055,0.1680491268635,110.52003810992993
40,0.6634999960661,0.2743577063084,22.01658338211,0.1763346493244,115.96913668741406
41,0.6664999872446,0.285252481699,22.00568860672,0.1823923885822,119.95310010411117
42,0.6694999933243,0.2958191931248,21.9951218953,0.1882822811604,123.82667662518885
43,0.672499999404,0.3059815466404,21.98495954178,0.1990015804768,130.87638519000967
44,0.6759999990463,0.3173569738865,21.97358411454,0.2192957699299,144.22316439457276
45,0.6794999986887,0.3283661901951,21.96257489823,0.2410242855549,158.51324979857372
46,0.6829999983311,0.3391770422459,21.95176404618,0.261806756258,172.1811545178335
47,0.6864999979734,0.349949747324,21.9409913411,0.2808192074299,184.68497924635082
48,0.6899999976158,0.3607834875584,21.93015760086,0.2975428402424,195.6835281247111
49,0.6934999972582,0.3717087805271,21.91923230789,0.3116724789143,204.97609770626187
50,0.6969999969006,0.3827637732029,21.90817731522,0.325771600008,214.24859694309478
51,0.7004999965429,0.3939560949802,21.89698499344,0.3382304012775,222.44231515400594
52,0.7039999961853,0.4052323400974,21.88570874832,0.3497584164143,230.02388785260064
53,0.7074999958277,0.4165314733982,21.87440961502,0.3606913387775,237.2140888300519
54,0.71099999547,0.4277924597263,21.8631486287,0.3719828426838,244.64011635744484
55,0.7144999951124,0.4389771521091,21.85196393631,0.3841288387775,252.62811353549114
56,0.7179999947548,0.4500626623631,21.84087842606,0.3969919979572,261.0877638132893
57,0.7214999943972,0.4610032141209,21.8299378743,0.4107554256916,270.13948925881755
58,0.7249999940395,0.4717988073826,21.81914228104,0.4258005917072,280.0341691803917
59,0.7284999936819,0.4824799597263,21.8084611287,0.4414561092854,290.3302559954024
60,0.7319999933243,0.4930619299412,21.79787915848,0.4579508602619,301.17827728870753
61,0.7354999929667,0.5035828351974,21.78735825322,0.4738047420979,311.6048213440555
62,0.738999992609,0.5140656232834,21.77687546514,0.4901621639729,322.3625260863933
63,0.7424999922514,0.5245331525803,21.76640793584,0.506641626358,333.2004926074083
64,0.7459999918938,0.5350159406662,21.75592514776,0.5213816165924,342.89446908232986
65,0.7494999915361,0.5455063581467,21.74543473028,0.5361979007721,352.63862141891457
66,0.7529999911785,0.5559891462326,21.73495194219,0.5513346195221,362.59351237451074
67,0.7564999908209,0.5664948225021,21.72444626592,0.5669596195221,372.86952884480354
68,0.7599999904633,0.5770310163498,21.71391007207,0.5825083255768,383.0953694534333
69,0.7634999901056,0.5875824689865,21.70335861944,0.5978739261627,393.20078799401887
70,0.766999989748,0.5981491804123,21.69279190801,0.6124308109283,402.77434240089633
71,0.7704999893904,0.6087235212326,21.68221756719,0.6275064945221,412.6890926671883
72,0.7739999890327,0.6193054914474,21.67163559697,0.6419107913971,422.1622953507395
73,0.7774999886751,0.6298874616623,21.66105362676,0.6572306156158,432.23760837431405
74,0.7809999883175,0.6404694318771,21.65047165654,0.6721231937408,442.0319365725619
75,0.7844999879599,0.6510361433029,21.63990494512,0.6883127689362,452.67925441928026
76,0.7879999876022,0.6615952253342,21.62934586309,0.7047770023346,463.5072053679333
77,0.7914999872446,0.6721466779709,21.61879441045,0.720020532608,473.53234252984475
78,0.794999986887,0.6826905012131,21.60825058721,0.7361795902252,484.1595900318452
79,0.7984999865294,0.6932343244553,21.59770676397,0.7520487308502,494.5961692594864
80,0.8019999861717,0.7037781476974,21.58716294072,0.7672007083893,504.5610953874415
81,0.8054999858141,0.7143219709396,21.57661911748,0.7828562259674,514.8571822023864
82,0.8090000003576,0.7248429059982,21.56609818242,0.7981607913971,524.9224600536678
83,0.8125,0.7353409528732,21.55560013555,0.8135721683502,535.0579841112644
84,0.8159999996424,0.7458000779152,21.54514101051,0.8303450942039,546.0889513002322
85,0.8194999992847,0.756252348423,21.53468874,0.8473128676414,557.2480629359409
86,0.8229999989271,0.7667046189308,21.52423646949,0.864295899868,568.4172097440085
87,0.8264999985695,0.7771416306496,21.51379945777,0.8800734877586,578.7935779376274
88,0.8299999982119,0.7875862717628,21.50335481666,0.8960036635399,589.2702978546386
89,0.8334999978542,0.7980232834816,21.49291780494,0.9117812514305,599.6466660482577
90,0.8369999974966,0.8084755539894,21.48246553443,0.9276351332664,610.07321010354
91,0.840499997139,0.8189201951027,21.47202089332,0.9437026381493,620.6402465715842
92,0.8439999967813,0.8293724656105,21.46156862281,0.9596022963524,631.0968961438774
93,0.8474999964237,0.8398171067238,21.4511239817,0.9753951430321,641.4832995098553
94,0.8509999960661,0.8502693772316,21.44067171119,0.9914321303368,652.0302656331818
95,0.8544999957085,0.8606987595558,21.43024232887,1.007163882256,662.3764891101904
96,0.8579999953508,0.8710976243019,21.41984346412,1.023414492607,673.0639476458183
97,0.8614999949932,0.8814736008644,21.40946748756,1.040489077568,684.293305487908
98,0.8649999946356,0.8918495774269,21.39909151099,1.056815981865,695.0309398856594
99,0.868499994278,0.9022179245949,21.38872316383,1.072563052177,705.3872377342976
100,0.8719999939203,0.9125710129738,21.37837007545,1.088600039482,715.9342038578212
101,0.8754999935627,0.9229164719582,21.36802461646,1.105430483818,727.0029989425626
102,0.8789999932051,0.9332390427589,21.35770204566,1.12297809124,738.5434471270557
103,0.8824999928474,0.9435463547707,21.34739473365,1.140098452568,749.8029104860248
104,0.8859999924898,0.9538460373878,21.33709505103,1.157081484795,760.9720572943554
105,0.8894999921322,0.964130461216,21.32681062721,1.174354434013,772.3318723762562
106,0.8929999917746,0.9744072556496,21.31653383277,1.192100405693,784.0027778012181
107,0.8964999914169,0.9846916794777,21.30624940894,1.209510684013,795.4529094344151
108,0.8999999910593,0.9949837327003,21.29595735572,1.227424502373,807.2342017552594
109,0.9034999907017,1.005290985107,21.28565010331,1.244468569756,818.4434892527628
110,0.906999990344,1.015621185303,21.27531990312,1.262321352959,830.1846408837769
111,0.9104999899864,1.025981903076,21.26495918535,1.279151797295,841.2534359685181
112,0.9139999896288,1.036388397217,21.25455269121,1.295387148857,851.9308593318528
113,0.9174999892712,1.046817779541,21.24412330888,1.312858462334,863.4211316548802
114,0.9209999889135,1.057262420654,21.23367866777,1.329948306084,874.660524669263
115,0.9244999885559,1.067737579346,21.22320350908,1.34629046917,885.4081942393076
116,0.9279999881983,1.078189849854,21.21275123857,1.362846255302,896.2963562214566
117,0.9314999878407,1.08865737915,21.20228370927,1.379524111748,907.2647995832662
118,0.934999987483,1.099102020264,21.19183906816,1.396949648857,918.7249663887562
119,0.9384999871254,1.109531402588,21.18140968583,1.414573550224,930.3155904347153
120,0.9419999867678,1.119960784912,21.17098030351,1.431693911552,941.5750537936843
121,0.9454999864101,1.130367279053,21.16057380937,1.449195742607,953.0853964612979
122,0.9489999860525,1.14075088501,21.15019020341,1.466956973076,964.7663370585531
123,0.9524999856949,1.151134490967,21.13980659746,1.485328555107,976.8486845488501
124,0.9560000002384,1.161525726318,21.1294153621,1.503074526787,988.5195899738121
125,0.9594999998808,1.171894073486,21.11904701494,1.520469546318,999.9596864347159
126,0.9629999995232,1.182239532471,21.10870155595,1.538474917412,1011.8011897893193
127,0.9664999991655,1.192577362061,21.09836372636,1.556358218193,1023.5624117649197
128,0.9699999988079,1.202892303467,21.08804878496,1.573570132256,1034.8820861583056
129,0.9734999984503,1.213199615479,21.07774147294,1.591941714287,1046.9644336486026
130,0.9769999980927,1.223522186279,21.06741890214,1.610847353935,1059.3980121704758
131,0.980499997735,1.233852386475,21.05708870195,1.628944277763,1071.2997265588383
132,0.9839999973774,1.244220733643,21.04672035478,1.646064639091,1082.5591899178073
133,0.9874999970198,1.254596710205,21.03634437822,1.663215517998,1093.8387236220203
134,0.9909999966621,1.264980316162,21.02596077226,1.68010699749,1104.9476593959344
135,0.9944999963045,1.275379180908,21.01556190751,1.698097109795,1116.7791275782447
136,0.9979999959469,1.285785675049,21.00515541337,1.716331362724,1128.7711585172456
137,1.001499995589,1.296207427979,20.99473366044,1.735298037529,1141.2448777289492
138,1.004999995232,1.306667327881,20.98427376054,1.754264712334,1153.7185969406528
139,1.008499994874,1.317150115967,20.97379097246,1.773353457451,1166.2725975307014
140,1.011999994516,1.327686309814,20.96325477861,1.792961001396,1179.1677939800334
141,1.015499994159,1.338268280029,20.95267280839,1.811042666435,1191.0594731961025
142,1.018999993801,1.348880767822,20.9420603206,1.829398989677,1203.1317855141067
143,1.022499993443,1.359523773193,20.93141731523,1.848518252373,1215.7058564493993
144,1.025999993086,1.37015914917,20.92078193925,1.867133975029,1227.948766697045
145,1.029499992728,1.380794525146,20.91014656328,1.885337710381,1239.9207272921171
146,1.032999992371,1.391407012939,20.89953407548,1.904273867607,1252.3743761585765
147,1.036499992013,1.402027130127,20.88891395829,1.922965884209,1264.6674622683456
148,1.039999991655,1.412631988525,20.8783090999,1.942130923271,1277.2716387198602
149,1.043499991298,1.423221588135,20.86771950029,1.961723208427,1290.156799996899
150,1.04699999094,1.433795928955,20.85714515947,1.98039996624,1302.4398509343748
151,1.050499990582,1.444370269775,20.84657081865,1.998863101006,1314.5824094590885
152,1.053999990225,1.454906463623,20.8360346248,2.017585754395,1326.8956443130373
153,1.057499989867,1.465435028076,20.82550606035,2.035942077637,1338.967956631041
154,1.06099998951,1.475925445557,20.81501564287,2.054039001465,1350.8696710194035
155,1.064500004053,1.486400723457,20.80454036496,2.073072910309,1363.3876077090033
156,1.067999988794,1.496822476387,20.79411861203,2.093122959137,1376.5738241561523
157,1.071499988437,1.507221341133,20.78371974729,2.112135410309,1389.0776488847353
158,1.074999988079,1.51760494709,20.77333614133,2.131132602692,1401.571438441025
159,1.078499987721,1.527965664864,20.76297542356,2.151518344879,1414.9784286792815
160,1.081999987364,1.538318753242,20.75262233518,2.171766757965,1428.2951023668993
161,1.085499987006,1.548679471016,20.74226161741,2.191938877106,1441.5616001930516
162,1.088999986649,1.559040188789,20.73190089963,2.211775302887,1454.6073242274385
163,1.092499986291,1.569408535957,20.72153255246,2.231596469879,1467.6430130895321
164,1.095999985933,1.579776883125,20.7111642053,2.251219272614,1480.5482447118152
165,1.099500000477,1.590152859688,20.70078822873,2.271330356598,1493.7746018481366
166,1.103000000119,1.600536465645,20.69040462278,2.290754795074,1506.5493762292929
167,1.106499999762,1.610912442207,20.68002864621,2.310759067535,1519.7054871595624
168,1.109999999404,1.621296048164,20.66964504026,2.331068515778,1533.0623015370106
169,1.113499999046,1.631687283516,20.65925380491,2.350447177887,1545.8069704012873
170,1.116999998689,1.642086148262,20.64885494016,2.369856357574,1558.5717096101505
171,1.120499998331,1.652492642403,20.63844844602,2.390501499176,1572.1492977787059
172,1.123999997973,1.662914395332,20.62802669309,2.411711215973,1586.0981873234236
173,1.127499997616,1.673359036446,20.61758205198,2.432142734528,1599.5352830792174
174,1.130999997258,1.683841824532,20.60709926389,2.452620029449,1613.0024843512329
175,1.134499996901,1.694355130196,20.59658595823,2.472563266754,1626.1184545923295
176,1.137999996543,1.704891324043,20.58604976438,2.493193149567,1639.6860075885918
177,1.141499996185,1.715480923653,20.57546016477,2.514051914215,1653.4040881692517
178,1.144999995828,1.726116299629,20.56482478879,2.533903598785,1666.4598473759318
179,1.14849999547,1.736744046211,20.55419704221,2.554594516754,1680.0675410613667
180,1.151999995112,1.747379422188,20.54356166623,2.575056552887,1693.5247071617468
181,1.155499994755,1.757991909981,20.53294917844,2.596266269684,1707.4735967064646
182,1.158999994397,1.768596768379,20.52234432004,2.617521762848,1721.4525917680621
183,1.16249999404,1.779178738594,20.51176234983,2.639875888824,1736.1541192373984
184,1.165999993682,1.789783596992,20.50115749143,2.66192483902,1750.6549432608713
185,1.169499993324,1.800396084785,20.49054500364,2.682386875153,1764.112109361251
186,1.172999992967,1.811000943184,20.47994014524,2.702696323395,1777.4689237380414
187,1.176499992609,1.821598172188,20.46934291623,2.722242832184,1790.3239794982007
188,1.179999992251,1.832164883614,20.45877620481,2.742094516754,1803.3797387048808
189,1.183499991894,1.842701077461,20.44824001096,2.763472080231,1817.4390151454816
190,1.186999991536,1.853214383125,20.4377267053,2.784224033356,1831.0868495200891
191,1.190499991179,1.863681912422,20.427259176,2.804289340973,1844.283101139531
192,1.193999990821,1.874103665352,20.41683742307,2.825193881989,1858.0312872377283
193,1.197499990463,1.884502530098,20.40643855832,2.845747470856,1871.548664371867
194,1.200999990106,1.894886136055,20.39605495237,2.867201328278,1885.6581166739334
195,1.204499989748,1.905254483223,20.3856866052,2.888456821442,1899.6371117355307
196,1.20799998939,1.915645718575,20.37529536985,2.909574985504,1913.525790245832
197,1.211499989033,1.92605984211,20.36488124631,2.929670810699,1926.7421122098608
198,1.214999988675,1.936489224434,20.35445186399,2.950743198395,1940.6006852039402
199,1.218499988317,1.946910977364,20.34403011106,2.972456455231,1954.8807354356481
200,1.22199998796,1.957370877266,20.33357021116,2.99346780777,1968.6991677398971
201,1.225499987602,1.967853665352,20.32308742307,3.015409946442,1983.12974555666
202,1.228999987245,1.978359341621,20.3125817468,3.037107944489,1997.3997606160747
203,1.232499986887,1.988872647285,20.30206844114,3.057951450348,2011.1078060244413
204,1.235999986529,1.999408841133,20.29153224729,3.079496860504,2025.2774693602667
205,1.239499986172,2.00997543335,20.28096565507,3.102064609528,2040.1194892430224
206,1.242999985814,2.020580291748,20.27036079667,3.124311923981,2054.7507705063067
207,1.246500000358,2.031230926514,20.25971016191,3.146360874176,2069.2515945291216
208,1.25,2.041927337646,20.24901375078,3.167311191559,2083.029886144198
209,1.253499999642,2.052661895752,20.23827919267,3.188246250153,2096.798142586981
210,1.256999999285,2.063396453857,20.22754463456,3.208708286285,2110.2553086867033
211,1.260499998927,2.074131011963,20.21681007646,3.230574131012,2124.635710642001
212,1.263999998569,2.084857940674,20.20608314775,3.252485752106,2139.0462181141775
213,1.267499998212,2.095561981201,20.19537910722,3.273451328278,2152.834544901547
214,1.270999997854,2.106227874756,20.18471321367,3.295286655426,2167.1948765116
215,1.274499997497,2.116863250732,20.17407783769,3.316923618317,2181.424750881842
216,1.277999997139,2.127445220947,20.16349586747,3.338621616364,2195.6947659412567
217,1.281499996781,2.137989044189,20.15295204423,3.361326694489,2210.627102374651
218,1.284999996424,2.148502349854,20.14243873857,3.383162021637,2224.9874339847042
219,1.288499996066,2.15896987915,20.13197120927,3.405119419098,2239.42804697376
220,1.291999995708,2.169399261475,20.12154182695,3.427488803864,2254.139609616047
221,1.295499995351,2.179805755615,20.11113533281,3.450026035309,2268.961559153559
222,1.298999994993,2.190174102783,20.10076698564,3.472532749176,2283.7634383464842
223,1.302499994636,2.200511932373,20.09042915605,3.495131015778,2298.6255285738266
224,1.305999994278,2.210826873779,20.08011421464,3.518324375153,2313.8789905219173
225,1.30949999392,2.22114944458,20.06979164384,3.541166782379,2328.9016435059502
226,1.312999993563,2.231479644775,20.05946144365,3.563536167145,2343.613206148237
227,1.316499993205,2.241832971573,20.04910811685,3.585961580276,2358.3616166882225
228,1.319999992847,2.252224206924,20.0387168815,3.60901761055,2373.5247620856753
229,1.32349999249,2.262653589249,20.02828749917,3.632149934769,2388.7380833445936
230,1.326999992132,2.273166894913,20.01777419351,3.655190706253,2403.891193569095
231,1.330499991775,2.283748865128,20.00719222329,3.677300691605,2418.4321582817406
232,1.333999991417,2.294399499893,19.99654158853,3.700661897659,2433.7960071250563
233,1.337499991059,2.305111169815,19.98582991861,3.723489046097,2448.8086249374533
234,1.340999990702,2.315883874893,19.97505721353,3.745873689651,2463.5302227513757
235,1.344499990344,2.326702356339,19.96423873208,3.768182039261,2478.2016447044903
236,1.347999989986,2.337520837784,19.95342025064,3.791177034378,2493.324649412112
237,1.351499989629,2.348362207413,19.94257888101,3.814568758011,2508.708568600672
238,1.354999989271,2.359211206436,19.93172988199,3.837289094925,2523.65094020636
239,1.358499988914,2.370037317276,19.92090377115,3.860863924026,2539.1552814624374
