,time,travel,position,force,stress
0,0.0,0.0,13.50844368163,-0.009494022466242,-5.712743309368323
1,0.0,0.0,13.50844283971,-0.009642318822443,-5.801976194555111
2,0.0,0.0,13.50844520527,-0.008749342523515,-5.264654485525633
3,0.0,0.0,13.50845409381,-0.007967568002641,-4.79424511168671
4,0.0,0.0,13.50846045661,-0.007936275564134,-4.775415825222482
5,0.0,0.0,13.56069481009,-0.008710062131286,-5.241018687454428
6,0.0,0.0,13.56069565017,-0.008623277768493,-5.188798799660151
7,0.008000001311302,-6.48177228868e-06,13.56070213194,-0.0089155677706,-5.364675543144723
8,0.01100000739098,-1.312210224569e-05,13.56070877227,-0.008910769596696,-5.36178838588712
9,0.01299999654293,-7.638474926353e-06,13.56070328864,-0.009015196934342,-5.424624404716183
10,0.01399999856949,-9.80100594461e-06,13.56070545117,-0.009064191952348,-5.4541056875234855
11,0.1140000075102,1.964003240573e-05,13.56067601014,-0.007040424272418,-4.236364175499
12,0.2144999951124,1.026363679557e-05,13.56068538653,-0.006136521697044,-3.69246790727871
13,0.3145000040531,5.991229045321e-06,13.56068965894,-0.007003990933299,-4.214441506258424
14,0.4150000065565,-1.334321268587e-06,13.56069698449,-0.01088367961347,-6.548927824242872
15,0.5154999941587,0.00195181928575,13.55874383088,-0.01011342275888,-6.085448860694993
16,0.5604999959469,0.01208229083568,13.54861335933,-0.002591420197859,-1.5593093917483454
17,0.5789999961853,0.02217502705753,13.53852062311,0.01272363588214,7.65606633173531
18,0.5894999951124,0.03235073015094,13.52834492002,0.02627201005816,15.808394199304942
19,0.5974999964237,0.04306240007281,13.5176332501,0.02006931230426,12.07610683432127
20,0.6044999957085,0.05377788469195,13.50691776548,0.01923239603639,11.572517567835328
21,0.6110000014305,0.0644475966692,13.4962480535,0.01751935854554,10.541748628816368
22,0.6169999986887,0.0745794326067,13.48611621756,0.01787209883332,10.753999518902736
23,0.6229999959469,0.08477993309498,13.47591571707,0.01664704456925,10.01685985280616
24,0.6295000016689,0.09553737938404,13.46515827078,0.0166698731482,10.03059626559881
25,0.636000007391,0.1057874709368,13.45490817923,0.01424229517579,8.569874019662885
26,0.6435000002384,0.1164419203997,13.44425372977,0.02730572596192,16.43040174499912
27,0.651000007987,0.126657679677,13.43403797049,0.04191601648927,25.221705931904403
28,0.6585000008345,0.1371519118547,13.42354373831,0.05012333765626,30.160215320445808
29,0.6655000001192,0.1473257094622,13.41336994071,0.05779087916017,34.773928483808916
30,0.672499999404,0.1579610854387,13.40273456473,0.06401681900024,38.520201077154496
31,0.679000005126,0.1680700331926,13.39262561698,0.06128979101777,36.87929376766481
32,0.6860000044107,0.1786291152239,13.38206653495,0.06168815866113,37.118999550684144
33,0.6934999972582,0.1891920119524,13.37150363822,0.06141206994653,36.95287144610767
34,0.7020000070333,0.199655726552,13.36103992362,0.06666991114616,40.11661971421102
35,0.7119999974966,0.2099687606096,13.35072688956,0.07452818751335,44.84510186173658
36,0.7245000004768,0.2202665358782,13.34042911429,0.0876679122448,52.75153718074261
37,0.7380000054836,0.2303545027971,13.33034114737,0.10927054286,65.75027232704655
38,0.75,0.240692332387,13.32000331778,0.1192955672741,71.78253013468718
39,0.7604999989271,0.2509385943413,13.30975705583,0.1253380477428,75.41841155294743
40,0.7705000042915,0.2614061236382,13.29928952653,0.1294912993908,77.91750618313179
41,0.7800000011921,0.2714769244194,13.28921872575,0.1342615783215,80.78787847707518
42,0.7900000065565,0.2817727923393,13.27892285783,0.1412291228771,84.98038946851851
43,0.8005000054836,0.2921144068241,13.26858124334,0.1511404067278,90.94420730302052
44,0.8114999979734,0.3025743067265,13.25812134344,0.1627561599016,97.9336384385428
45,0.8225000053644,0.3128778040409,13.24781784613,0.1761800795794,106.01107954398866
46,0.8330000042915,0.3230306208134,13.23766502936,0.1888448745012,113.63174009238035
47,0.8429999947548,0.3332616388798,13.22743401129,0.1990510970354,119.7730284349657
48,0.8525000065565,0.343504101038,13.21719154913,0.2082445174456,125.30489347165852
49,0.8620000034571,0.3539525568485,13.20674309332,0.2177183181047,131.00546891499695
50,0.8715000003576,0.3643743097782,13.19632134039,0.2280504256487,137.2225047871507
51,0.8809999972582,0.3744336664677,13.1862619837,0.2405283004045,144.73069173107186
52,0.8910000026226,0.3845616877079,13.17613396246,0.2532770037651,152.40184166623914
53,0.9015000015497,0.3947297632694,13.1659658869,0.2677995562553,161.1403521204049
54,0.9124999940395,0.4051839411259,13.15551170904,0.2828714251518,170.20939724899083
55,0.9230000078678,0.4152490198612,13.14544663031,0.2966768145561,178.51637632272548
56,0.9335000067949,0.4256097376347,13.13508591253,0.3106462359428,186.92205672282734
57,0.9434999972582,0.4356500208378,13.12504562933,0.326618373394,196.53281145667108
58,0.9535000026226,0.4457246363163,13.11497101385,0.3415796160698,205.53529057444416
59,0.9640000015497,0.4561730921268,13.10452255804,0.3585473895073,215.74513940560288
60,0.9745000004768,0.466493755579,13.09420189459,0.3747293353081,225.4821400220205
61,0.984999999404,0.4766027033329,13.08409294684,0.3907243609428,235.10666703390743
62,0.9954999983311,0.4866029322147,13.07409271795,0.4095613360405,246.4412519098919
63,1.005999997258,0.4966813623905,13.06401428778,0.4279062151909,257.4797328067146
64,1.016499996185,0.5069486498833,13.05374700029,0.4476129412651,269.3376642504457
65,1.026999995112,0.5173780322075,13.04331761796,0.4685136675835,281.9140495350742
66,1.037000000477,0.5274640917778,13.03323155839,0.4886247515678,294.0152912251974
67,1.047000005841,0.5375601649284,13.02313548524,0.5076692700386,305.4747591020697
68,1.056999996305,0.5475890040398,13.01310664613,0.5286348462105,318.0901658413043
69,1.067499995232,0.5580145716667,13.0026810785,0.5510728955269,331.59158913825996
70,1.077999994159,0.5684515833855,12.99224406678,0.5737703442574,345.24909825370025
71,1.088500007987,0.5789229273796,12.98177272279,0.5977953076363,359.70539949889377
72,1.099000006914,0.5894209742546,12.97127467591,0.622262775898,374.4279647873385
73,1.108999997377,0.5994269251823,12.96126872499,0.6464250683784,388.9668997010919
74,1.119000002742,0.6094366908073,12.95125895936,0.6701067090034,403.21661677479545
75,1.129500001669,0.6199118494987,12.94078380067,0.6964891552925,419.0914626642726
76,1.140000000596,0.6303374171257,12.93035823304,0.7233827710152,435.27388943131086
77,1.150499999523,0.6407858729362,12.91990977723,0.7509554028511,451.86489378192124
78,1.16099999845,0.6512381434441,12.90945750672,0.7802065014839,469.4658651931829
79,1.171000003815,0.6612784266472,12.89941722352,0.8081606030464,486.28640751214226
80,1.181500002742,0.6717688441277,12.88892680604,0.836862385273,503.556844249044
81,1.192000001669,0.6821791529655,12.8785164972,0.8665407299995,521.4148981848011
82,1.202500000596,0.6926619410515,12.86803370912,0.8981645703316,540.4435957591019
83,1.21250000596,0.7027708888054,12.85792476136,0.9278200268745,558.2878774167557
84,1.222499996424,0.7128722071648,12.847823443,0.9588029980659,576.9309512042229
85,1.232500001788,0.7229811549187,12.83771449525,0.9905870556831,596.056054725187
86,1.242500007153,0.7330710291862,12.82762462098,1.021219134331,614.4879894472776
87,1.25300000608,0.7435385584831,12.81715709169,1.052446246147,633.2779675342332
88,1.263500005007,0.7538096308708,12.8068860193,1.084550738335,652.5958829488847
89,1.274000003934,0.7640463709831,12.79664927919,1.117837786674,672.6253660645395
90,1.284500002861,0.7743498682976,12.78634578187,1.149331927299,691.576020729568
91,1.295000001788,0.784624516964,12.7760711332,1.183391451836,712.0703182321134
92,1.305500000715,0.794929921627,12.76576572854,1.21823489666,733.0363162589161
93,1.315999999642,0.8053173422813,12.75537830789,1.252544283867,753.6809611301748
94,1.326499998569,0.8157734274864,12.74492222268,1.289234042168,775.7579229239404
95,1.336500003934,0.8258175253868,12.73487812478,1.325076937675,797.3253104274011
96,1.346499994397,0.8359760642052,12.72471958596,1.359821200371,818.2316285829843
97,1.356499999762,0.8461117148399,12.71458393533,1.395137667656,839.4822536905492
98,1.366500005126,0.8561252951622,12.70457035501,1.433353304863,862.4773673574704
99,1.377000004053,0.8666080832481,12.69408756692,1.470920443535,885.0822664783304
100,1.38750000298,0.8770527243614,12.68364292581,1.509555697441,908.3298719102789
101,1.397499993443,0.8870548605919,12.67364078958,1.546131014824,930.3379723135279
102,1.407499998808,0.8971332907677,12.6635623594,1.583377718925,952.7500595405802
103,1.417500004172,0.9073032736778,12.65339237649,1.619846224785,974.6938893129611
104,1.427499994636,0.9174579977989,12.64323765237,1.657337069511,997.2528808397421
105,1.4375,0.9275173544884,12.63317829568,1.695415377617,1020.1653608384042
106,1.447999998927,0.9379848837852,12.62271076638,1.736232638359,1044.7259234492174
107,1.458499997854,0.9484676718712,12.6122279783,1.776248812675,1068.8044563264134
108,1.468999996781,0.9589046835899,12.60179096658,1.816142916679,1092.8095370540457
109,1.479499995708,0.9690117239952,12.59168392617,1.852725863457,1114.8222282169434
110,1.490999996662,0.9791225790977,12.58157307107,1.889530062675,1136.968051400624
111,1.505500003695,0.9893421530724,12.5713534971,1.928081393242,1160.1651584800484
112,1.524000003934,0.9973368048668,12.5633588453,1.960990786552,1179.9673990072388
113,1.624500006437,1.00351691246,12.55717873771,1.982564806938,1192.948918806094
114,1.72499999404,1.002787828445,12.55790782172,1.975571036339,1188.7406270795095
115,1.82500000298,1.001985669136,12.55870998103,1.971298336983,1186.1696583730711
116,1.925500005484,1.001360177994,12.55933547218,1.965849757195,1182.8911388793442
117,2.026000007987,1.000910997391,12.55978465278,1.960818767548,1179.8638917301412
118,2.126499995589,1.000538468361,12.56015718181,1.956284165382,1177.135330861808
119,2.22650000453,1.000373959541,12.56032169063,1.951775670052,1174.4224789991379
120,2.327000007033,1.000246882439,12.56044876773,1.950824737549,1173.8502838823167
121,2.427499994636,1.00014424324,12.56055140693,1.949936628342,1173.315890799899
122,2.527500003576,1.000090241432,12.56060540874,1.940863251686,1167.8562584923868
123,2.62800000608,1.000037908554,12.56065774161,1.936263442039,1165.088460977824
124,2.728499993682,1.000000238419,12.56069541175,1.940104365349,1167.399621396816
125,2.828500002623,1.000017046928,12.56067860324,1.940021157265,1167.349553427539
126,2.929000005126,1.000013828278,12.56068182189,1.933612346649,1163.493243828763
127,3.029500007629,1.000023365021,12.56067228515,1.926485538483,1159.204900735808
128,3.129999995232,0.9999987483025,12.56069690187,1.928228616714,1160.2537457893413
129,3.230000004172,1.000004410744,12.56069123943,1.927751421928,1159.9666081371313
130,3.330500006676,0.9999983906746,12.56069725949,1.928219676018,1160.2483659936397
131,3.430999994278,1.000012636185,12.56068301398,1.925207018852,1158.4355898884974
132,3.531000003219,1.000004649162,12.56069100101,1.920302510262,1155.4844489223908
133,3.631500005722,1.000002026558,12.56069362361,1.91913664341,1154.782923506577
134,3.731999993324,0.999983727932,12.56071192224,1.922113180161,1156.5739652351833
135,3.832000002265,1.00001335144,12.56068229873,1.917890787125,1154.0332668482033
136,3.932500004768,1.000021100044,12.56067455012,1.915021538734,1152.3067826728304
137,4.033000007272,1.000029325485,12.56066632468,1.913289785385,1151.2647520274265
138,4.133499994874,0.9999990463257,12.56069660384,1.910997867584,1149.8856592214174
139,4.233500003815,1.000010609627,12.56068504054,1.911474585533,1150.1725099512623
140,4.334000006318,1.000012874603,12.56068277557,1.911680340767,1150.29631699307
141,4.43449999392,1.000007867813,12.56068778236,1.907571554184,1147.8239778823172
142,4.534500002861,1.000002264977,12.56069338519,1.900652766228,1143.660804712555
143,4.635000005364,1.000016689301,12.56067896087,1.900606632233,1143.6330449645443
144,4.735500007868,1.000009298325,12.56068635184,1.91062438488,1149.6609272044007
145,4.83599999547,1.000020265579,12.56067538459,1.9077283144,1147.918303641321
146,4.936000004411,1.000020861626,12.56067478854,1.900170087814,1143.3703674516407
147,5.036500006914,1.000004768372,12.5606908818,1.894046068192,1139.6854222931036
148,5.136999994516,1.000006556511,12.56068909366,1.898000001907,1142.0645833343133
149,5.237000003457,1.000009417534,12.56068623264,1.902993083,1145.0690201479601
150,5.33750000596,0.9999779462814,12.56071770389,1.899250388145,1142.816965756059
151,5.437999993563,1.000002741814,12.56069290836,1.893804311752,1139.5399526052008
152,5.538000002503,0.9999949932098,12.56070065696,1.889874100685,1137.175065956023
153,5.638500005007,0.9999866485596,12.56070900161,1.893732666969,1139.4968425055365
154,5.73900000751,1.000020861626,12.56067478854,1.8947930336,1140.134886327137
155,5.839499995112,1.000030517578,12.56066513259,1.895335316658,1140.461188895136
156,5.939500004053,1.000017404556,12.56067824561,1.886396288872,1135.0823969912506
157,6.039499998093,1.000014781952,12.56068086822,1.886553525925,1135.1770096726195
158,6.139500007033,1.00000333786,12.56069231231,1.888482928276,1136.3379696778175
159,6.239500001073,0.9999803304672,12.5607153197,1.888961911201,1136.6261832890475
160,6.339499995112,1.000028967857,12.56066668231,1.88673055172,1135.2835296360563
161,6.439500004053,0.9999935030937,12.56070214708,1.883154273033,1133.1316111827095
162,6.539499998093,0.9999850988388,12.56071055133,1.884897828102,1134.1807431592097
163,6.639500007033,0.9999942183495,12.56070143182,1.884288907051,1133.814343177284
164,6.739500001073,0.9999983310699,12.5606973191,1.884215712547,1133.7703005794815
165,6.839499995112,1.000002264977,12.56069338519,1.880741357803,1131.679711802308
166,6.939500004053,1.000013947487,12.56068170268,1.880434751511,1131.4952206607018
167,7.039499998093,1.000007510185,12.56068813998,1.879042387009,1130.6574070762822
168,7.139500007033,1.000031709671,12.5606639405,1.878566265106,1130.3709149992433
169,7.239500001073,1.000013947487,12.56068170268,1.878166437149,1130.1303305162833
170,7.339499995112,1.000054597855,12.56064105231,1.879456996918,1130.906886155572
171,7.439500004053,1.000016331673,12.5606793185,1.875735759735,1128.6677432743177
172,7.539499998093,1.000031709671,12.5606639405,1.874909281731,1128.1704349200895
173,7.639500007033,1.000015974045,12.56067967612,1.876892447472,1129.3637454329464
174,7.739500001073,1.00002682209,12.56066882808,1.872948765755,1126.9907532240932
175,7.839499995112,1.00000679493,12.56068885524,1.872733354568,1126.8611360021337
176,7.939500004053,1.000001192093,12.56069445808,1.872693657875,1126.8372497075575
177,8.039499998093,0.9999997615814,12.56069588859,1.870964884758,1125.7970123273876
178,8.139500007033,0.9999954104424,12.56070023973,1.871222615242,1125.9520939172328
179,8.239500001073,1.000014305115,12.56068134505,1.868112206459,1124.0804987079666
180,8.339499995112,1.000014305115,12.56068134505,1.868617653847,1124.3846365161826
181,8.439500004053,1.000000357628,12.56069529254,1.868881106377,1124.5431611756137
182,8.539499998093,1.000018715858,12.56067693431,1.866754412651,1123.263487001945
183,8.639500007033,1.000010967255,12.56068468291,1.866635084152,1123.1916846561319
184,8.739500001073,1.000006556511,12.56068909366,1.865364789963,1122.4273232218775
185,8.839499995112,0.9999561309814,12.56073951919,1.866982340813,1123.400635938248
186,8.939500004053,1.000008821487,12.56068682868,1.866298079491,1122.9889022075754
187,9.039499998093,0.9999888539314,12.56070679624,1.864584922791,1121.9580615380253
188,9.139500007033,0.9999848604202,12.56071078975,1.86336171627,1121.2220336959103
189,9.239500001073,1.000007748604,12.56068790157,1.863666415215,1121.4053771486576
190,9.339499995112,1.000009894371,12.5606857558,1.863802671432,1121.4873652411436
191,9.439500004053,1.000025510788,12.56067013938,1.862354755402,1120.6161251906465
192,9.539499998093,1.000001192093,12.56069445808,1.86320745945,1121.1292142803768
193,9.639500007033,1.000021696091,12.56067395408,1.862053751945,1120.4350053869819
194,9.739500001073,1.000008702278,12.56068694789,1.862002015114,1120.4038743004278
195,9.839499995112,1.000012874603,12.56068277557,1.859003067017,1118.5993472164444
196,9.939500004053,1.000019788742,12.56067586143,1.861053109169,1119.83289860411
197,10.03949999809,1.000010609627,12.56068504054,1.858506083488,1118.300302281565
198,10.13950000703,0.9999974370003,12.56069821317,1.859400987625,1118.8387840093417
199,10.23950000107,1.000006437302,12.56068921287,1.85720872879,1117.519657997519
200,10.33949999511,1.000006914139,12.56068873603,1.855233192444,1116.3309382443106
201,10.43950000405,1.000025987625,12.56066966254,1.854281425476,1115.7582410132
202,10.53949999809,1.000037193298,12.56065845687,1.854721307755,1116.0229269832619
203,10.63950000703,1.00003683567,12.5606588145,1.854334115982,1115.7899459450862
204,10.73950000107,0.9999970793724,12.5606985708,1.852255582809,1114.5392509399314
205,10.83949999511,0.9999987483025,12.56069690187,1.8533244133,1115.1823876354701
206,10.93950000405,1.000031113625,12.56066453654,1.853709340096,1115.4140057916588
207,11.03949999809,1.000012874603,12.56068277557,1.851605772972,1114.1482473572157
208,11.13950000703,1.00001347065,12.56068217952,1.851113677025,1113.8521433782346
209,11.23950000107,1.000009536743,12.56068611343,1.850907683372,1113.7281928749433
210,11.33949999511,1.000002503395,12.56069314677,1.852539300919,1114.7099698043971
211,11.43950000405,1.00003027916,12.56066537101,1.850261449814,1113.3393412108694
212,11.53949999809,0.9999958872795,12.56069976289,1.848750710487,1112.4302991253671
213,11.63950000703,0.9999829530716,12.5607126971,1.846852183342,1111.2879173494846
214,11.73950000107,1.000012874603,12.56068277557,1.848308086395,1112.163963351555
215,11.83949999511,0.9999855160713,12.5607101341,1.8483543396,1112.191794830608
216,11.93950000405,0.9999902844429,12.56070536573,1.845567107201,1110.5146613189002
217,12.03949999809,0.9999738931656,12.560721757,1.843783736229,1109.4415713167814
218,12.13950000703,1.000041007996,12.56065464217,1.844044923782,1109.5987330942257
219,12.23950000107,0.9999964237213,12.56069922645,1.84480369091,1110.0552984593558
220,12.33949999511,1.000018596649,12.56067705352,1.842458486557,1108.644142068654
221,12.43950000405,1.000030517578,12.56066513259,1.842688441277,1108.7825104254605
222,12.53949999809,1.000039696693,12.56065595348,1.843128919601,1109.0475550477267
223,12.63950000703,1.000048160553,12.56064748962,1.84260392189,1108.731653418927
224,12.73950000107,0.9999899864197,12.56070566375,1.844797253609,1110.0514250065228
225,12.83949999511,1.000026345253,12.56066930492,1.840024709702,1107.1796898310135
226,12.93950000405,1.000009417534,12.56068623264,1.843336224556,1109.1722945876727
227,13.03949999809,0.9999968409538,12.56069880922,1.839364171028,1106.7822304923727
228,13.13950000703,1.000028133392,12.56066751678,1.841428518295,1108.0243895540034
229,13.23950000107,1.000039458275,12.56065619189,1.839898347855,1107.1036553789595
230,13.33949999511,1.00001335144,12.56068229873,1.839855074883,1107.077617165742
231,13.43950000405,1.000029206276,12.56066644389,1.83914244175,1106.6488115486227
232,13.53949999809,0.9999793171883,12.56071633298,1.838340163231,1106.1660645087918
233,13.63950000703,1.000005960464,12.5606896897,1.836614131927,1105.1274769323722
234,13.73950000107,0.9999811649323,12.56071448524,1.837493538857,1105.6566336805718
235,13.83949999511,0.9999817609787,12.56071388919,1.837298154831,1105.539067202163
236,13.93950000405,0.9999970793724,12.5606985708,1.837766766548,1105.8210402499942
237,14.03949999809,0.9999911785126,12.56070447166,1.834992170334,1104.1515101836724
238,14.13950000703,0.9999946951866,12.56070095498,1.837381482124,1105.5892069018812
239,14.23950000107,0.9999926686287,12.56070298154,1.836694359779,1105.1757516364155
240,14.33949999511,1.000016450882,12.56067919929,1.835564613342,1104.4959605971378
