,time,travel,position,force,stress
0,0.0,0.0,20.09809273046,-0.009390673600137,-6.778104863602575
1,0.0,0.0,20.09809169483,-0.009401581250131,-6.7859779085643055
2,0.0,0.0,20.09807845515,-0.009758352302015,-7.043492087518652
3,0.0,0.0,20.09807592195,-0.01017963793129,-7.347572315875551
4,0.0,0.0,20.09806863528,-0.01006448175758,-7.2644536116873635
5,0.0,0.0,20.17391460272,-0.008931256830692,-6.4465019166797575
6,0.0,0.0,20.1739162089,-0.008925624191761,-6.442436327888282
7,0.007999999999811,2.553686499596e-06,20.17391365521,-0.008289359509945,-5.9831861273177225
8,0.01099999999997,1.152418553829e-05,20.17390468471,-0.008371464908123,-6.04244907504814
9,0.01299999999992,1.384690403938e-05,20.17390236199,-0.008476965129375,-6.118598198447434
10,0.01400000000012,1.621013507247e-05,20.17389999876,-0.008551828563213,-6.172633960588707
11,0.114,1.20952454381e-05,20.17390411365,-0.007997656241059,-5.772637296663431
12,0.2139999999999,1.812718983274e-05,20.17389808171,-0.008458563126624,-6.105315796177083
13,0.3139999999999,1.987455289054e-05,20.17389633435,-0.008192405104637,-5.91320529802383
14,0.3719999999998,0.01004811562598,20.16386809327,0.01576661877334,11.380205503957079
15,0.3820000000001,0.0203554276377,20.15356078126,0.0461506806314,33.31115169860636
16,0.3879999999999,0.03054829873145,20.14336791017,0.04178040847182,30.15672803940432
17,0.393,0.04097005352378,20.13294615537,0.05011766776443,36.17448780474546
18,0.3975,0.05202504619956,20.1218911627,0.0795823931694,57.441865106542835
19,0.4009999999998,0.06219502910972,20.11172117979,0.09642046689987,69.59543728953643
20,0.4045000000001,0.07386799901724,20.10004820988,0.1009356379509,72.85444768262876
21,0.4074999999998,0.08497639745474,20.08893981144,0.09914821386337,71.56430083940009
22,0.4105,0.09696217626333,20.07695403264,0.09470027685165,68.35381937918861
23,0.413,0.1075059995055,20.06641020939,0.08948940038681,64.59265499270104
24,0.4155000000001,0.1184312924743,20.05548491642,0.08422130346298,60.79018938673845
25,0.4180000000001,0.1296312510967,20.0442849578,0.08138507604599,58.74302560829529
26,0.4205000000002,0.1410143077374,20.03290190116,0.07879680395126,56.87483378088897
27,0.4230000000002,0.1524736583233,20.02144255058,0.07479137182236,53.98374841792511
28,0.4254999999998,0.1639024913311,20.01001371757,0.07219737768173,52.11142646857057
29,0.4279999999999,0.1752245128155,19.99869169608,0.06984752416611,50.41532305563274
30,0.4304999999999,0.186332911253,19.98758329765,0.06894606351852,49.76465676054536
31,0.433,0.1971971690655,19.97671903983,0.07502669095993,54.153599682997175
32,0.4355,0.207832545042,19.96608366386,0.08741682767868,63.0966904057793
33,0.4380000000001,0.218315333128,19.95560087577,0.1009666323662,72.87681917652098
34,0.4405000000002,0.2287218272686,19.94519438163,0.1110069155693,80.12380648634363
35,0.4430000000002,0.2390215098858,19.93489469901,0.1134750247002,81.90526575288774
36,0.4454999999998,0.2491686046124,19.92474760429,0.1085121035576,78.32307331742258
37,0.4485,0.2609712779522,19.91294493095,0.1020080447197,73.62850137088148
38,0.4515000000001,0.2721330821514,19.90178312675,0.1050111651421,75.7961270394764
39,0.4544999999998,0.2826692759991,19.8912469329,0.1166536211967,84.19954849444129
40,0.4580000000001,0.2942354381084,19.87968077079,0.1357728838921,97.99966262707339
41,0.4614999999999,0.305229395628,19.86868681327,0.155777156353,112.43856895409974
42,0.4650000000001,0.3158342540264,19.85808195487,0.1744539141655,125.9192869894265
43,0.4684999999999,0.326225489378,19.84769071952,0.1911928057671,138.0012703920299
44,0.4720000000002,0.3365480601788,19.83736814872,0.2065278887749,149.0699972102426
45,0.4755,0.3469018936157,19.82701431528,0.220072299242,158.84623248055814
46,0.4789999999998,0.3572931289673,19.81662307993,0.2317376434803,167.26617442338807
47,0.4825000000001,0.3677530288696,19.80616318003,0.2421365082264,174.77198270858474
48,0.4859999999999,0.3782815933228,19.79563461558,0.2506661713123,180.92861782436458
49,0.4895000000001,0.3888483047485,19.78506790415,0.2597604095936,187.49275830565452
50,0.4929999999999,0.3994455337524,19.77447067515,0.2691979706287,194.30470610369366
51,0.4965000000002,0.4100580215454,19.76385818735,0.2785744965076,201.07259926766653
52,0.5,0.4206476211548,19.75326858774,0.2860894501209,206.49682609153496
53,0.5034999999998,0.4312295913696,19.74268661753,0.2944360077381,212.52129730504382
54,0.5070000000001,0.4417734146118,19.73214279429,0.3043999969959,219.71321632224746
55,0.5104999999999,0.4523019790649,19.72161422983,0.3162713348866,228.28184265521355
56,0.5140000000001,0.4628305435181,19.71108566538,0.3275094330311,236.3934021592908
57,0.5174999999999,0.4733591079712,19.70055710093,0.3381905853748,244.10296312717034
58,0.5210000000002,0.4838800430298,19.69003616587,0.3484444916248,251.50414165636934
59,0.5245,0.4944162368774,19.67949997202,0.3590951263905,259.19167530728794
60,0.5279999999998,0.5049295425415,19.66898666636,0.369974642992,267.0444138359911
61,0.5315000000001,0.515435218811,19.65848099009,0.3809075653553,274.9357001695926
62,0.5349999999999,0.525918006897,19.647998202,0.3922448456287,283.1188484540817
63,0.5385000000001,0.5363779067993,19.6375383021,0.4025445282459,290.5530679588665
64,0.5419999999999,0.5468149185181,19.62710129038,0.4149117767811,299.4796381938918
65,0.5455000000002,0.5572061538696,19.61671005503,0.428324252367,309.16064403786163
66,0.549,0.5676126480103,19.60630356089,0.4415993988514,318.7425269551463
67,0.5525000000002,0.5780191421509,19.59589706675,0.4541650116444,327.81227475099524
68,0.556,0.5884256362915,19.58549057261,0.4664330780506,336.6672562055366
69,0.5594999999998,0.5988550186157,19.57506119028,0.4784951508045,345.37355327001393
70,0.5630000000001,0.6092844009399,19.56463180796,0.4913201630116,354.6305332608251
71,0.5664999999999,0.6197290420532,19.55418716685,0.5042367577553,363.9536167137713
72,0.5700000000002,0.6301507949829,19.54376541392,0.5169244408607,373.1114737777529
73,0.5735,0.6405649185181,19.53335129038,0.5289025902748,381.7571957203711
74,0.5770000000002,0.6509714126587,19.52294479624,0.5424447655678,391.53181766185804
75,0.5805,0.6613931655884,19.51252304331,0.5563531517982,401.57076740788716
76,0.5839999999998,0.6718454360962,19.5020707728,0.5691094994545,410.7781859353196
77,0.5875000000001,0.682297706604,19.49161850229,0.5822320580482,420.2499322672942
78,0.5909999999999,0.6927728652954,19.4811433436,0.5948510766029,429.3582278679693
79,0.5945000000002,0.7032403945923,19.47067581431,0.6076455712318,438.59318054167505
80,0.598,0.7137079238892,19.46020828501,0.6207299828529,448.03739272737624
81,0.6015000000002,0.7241525650024,19.4497636439,0.6346078515053,458.0543151564443
82,0.605,0.7345895767212,19.43932663218,0.6477456688881,467.5370751469716
83,0.6084999999998,0.7450037002563,19.42891250864,0.6599145531654,476.32046782110103
84,0.6120000000001,0.7553949356079,19.41852127329,0.6732049584389,485.9133643969383
85,0.6154999999999,0.7657861709595,19.40813003794,0.6880365014076,496.61864048377925
86,0.6190000000001,0.7761926651001,19.3977235438,0.702532351017,507.0816160831114
87,0.6224999999999,0.7866067886353,19.38730942026,0.716692507267,517.3022911948624
88,0.6260000000002,0.7970590591431,19.37685714976,0.7293038964272,526.4050799662972
89,0.6295,0.8075189590454,19.36639724985,0.7416940331459,535.3481706890433
90,0.6329999999998,0.8179559707642,19.35596023813,0.7549539208412,544.9190399477752
91,0.6365000000001,0.8283929824829,19.34552322642,0.7689767479897,555.040592132841
92,0.6399999999999,0.8388223648071,19.33509384409,0.7827783226967,565.0024462692179
93,0.6435000000001,0.8492517471313,19.32466446177,0.7962747216225,574.7440272351191
94,0.6469999999999,0.859673500061,19.31424270884,0.8103891015053,584.9316613712843
95,0.6505000000002,0.8701105117798,19.30380569712,0.8244577050209,595.0862545318638
96,0.654,0.8805704116821,19.29334579722,0.838877260685,605.4941618385769
97,0.6574999999998,0.8910455703735,19.28287063852,0.853037416935,615.7148369503279
98,0.6610000000001,0.9015283584595,19.27238785044,0.8673196434975,626.0236213302837
99,0.6644999999999,0.9120416641235,19.26187454477,0.8809381127357,635.8533115643174
100,0.6680000000001,0.9225549697876,19.25136123911,0.8954110741615,646.2997666758566
101,0.6714999999999,0.9330759048462,19.24084030405,0.910166323185,656.9499744701509
102,0.6750000000002,0.9436120986938,19.2303041102,0.9242959618568,667.1486222647966
103,0.6785,0.9541635513306,19.21975265757,0.9395394921303,678.1512671319099
104,0.6820000000002,0.9647302627563,19.20918594614,0.9543862938881,688.8675568773036
105,0.6855,0.9753274917603,19.19858871714,0.9685617089272,699.0992456476072
106,0.6889999999999,0.9859247207642,19.18799148813,0.9828439354897,709.408030027563
107,0.6925000000001,0.9965295791626,19.17738662974,0.9970498681068,719.6617461148276
108,0.6959999999999,1.007126808167,19.16678940073,1.010523319244,729.3867635705759
109,0.6995000000002,1.017716407776,19.15619980112,1.024530887604,739.4973020975222
110,0.703,1.028267860413,19.14564834849,1.03924036026,750.1144689160141
111,0.7065000000002,1.03880405426,19.13511215464,1.054499149323,761.1281274419687
112,0.71,1.049317359924,19.12459884897,1.06951379776,771.965567430792
113,0.7134999999998,1.05980014801,19.11411606089,1.082911014557,781.6355596163536
114,0.7170000000001,1.070237159729,19.10367904917,1.096956729889,791.77363228914
115,0.7204999999999,1.08064365387,19.09327255503,1.111162662506,802.0273483763325
116,0.7240000000002,1.091004371643,19.08291183726,1.12607049942,812.7876927557925
117,0.7275,1.101341128349,19.07257508055,1.14123916626,823.7363018610085
118,0.7310000000002,1.111656069756,19.06226013914,1.155948638916,834.3534686795005
119,0.7345,1.121940493584,19.05197571531,1.170597076416,844.9265808640704
120,0.7379999999998,1.132202029228,19.04171417967,1.185764312744,855.8741574384204
121,0.7415000000001,1.142455935478,19.03146027342,1.200870513916,866.7776793788485
122,0.7449999999999,1.152725100517,19.02119110838,1.216419219971,878.0005974166539
123,0.7485000000001,1.162994265556,19.01092194334,1.231998443604,889.2455427714204
124,0.752,1.173278689384,19.00063751951,1.246677398682,899.8406822729514
125,0.7555000000002,1.18360888958,18.99030731932,1.261600494385,910.612040310892
126,0.759,1.193961977959,18.97995423094,1.276401519775,921.2952890802668
127,0.7624999999998,1.204360842705,18.96955536619,1.291584014893,932.253879313819
128,0.7660000000001,1.214790225029,18.95912598387,1.307041168213,943.41071540002
129,0.7694999999999,1.22526538372,18.94865082518,1.321796417236,954.0609231939533
130,0.7730000000001,1.235755801201,18.9381604077,1.3371925354,965.1737046462323
131,0.7764999999999,1.246276736259,18.92763947264,1.352054595947,975.9010080502509
132,0.7800000000002,1.256805300713,18.91711090819,1.367572784424,987.1018987710954
133,0.7835,1.267372012138,18.90654419676,1.382968902588,998.2146802233744
134,0.7869999999998,1.277976870537,18.89593933836,1.39807510376,1009.1182021638025
135,0.7905000000001,1.288596987724,18.88531922117,1.41304397583,1019.9226011771843
136,0.7939999999999,1.299255251884,18.87466095701,1.427707672119,1030.5067270202348
137,0.7975000000001,1.30990588665,18.86401032225,1.441883087158,1040.7384157904662
138,0.8009999999999,1.320541262627,18.85337494627,1.45618057251,1051.0582138292637
139,0.8045000000002,1.331130862236,18.84278534666,1.471820831299,1062.347213817952
140,0.808,1.341682314873,18.83223389403,1.488391876221,1074.308046976837
141,0.8114999999998,1.35221850872,18.82169770018,1.504917144775,1086.2358391595587
142,0.8150000000001,1.362731814384,18.81118439451,1.520252227783,1097.304565977916
143,0.8184999999999,1.373237490654,18.80067871824,1.535144805908,1108.0538966988954
144,0.8220000000001,1.383735537529,18.79018067137,1.549869537354,1118.6820771765895
145,0.8254999999999,1.394203066826,18.77971314207,1.565158843994,1129.7177630187834
146,0.8290000000002,1.404670596123,18.76924561278,1.580219268799,1140.5882439837699
147,0.8325,1.415099978447,18.75881623045,1.595691680908,1151.7560937284513
148,0.8360000000002,1.425498843193,18.74841736571,1.611011505127,1162.813806888328
149,0.8395,1.435867190361,18.73804901854,1.625995635986,1173.6292195601902
150,0.8429999999998,1.446189761162,18.72772644774,1.641788482666,1185.0283561344054
151,0.8465000000001,1.456489443779,18.71742676512,1.65816116333,1196.8460117323223
152,0.8499999999999,1.466781497002,18.7071347119,1.674518585205,1208.6526536717588
153,0.8535000000002,1.477096438408,18.69681977049,1.689990997314,1219.8205034164403
154,0.857,1.487434267998,18.6864819409,1.704578399658,1230.3495609670883
155,0.8605000000002,1.497794985771,18.67612122313,1.719669342041,1241.242069249036
156,0.864,1.508178591728,18.66573761717,1.735660552979,1252.784383384219
157,0.8674999999998,1.518585085869,18.65533112303,1.751819610596,1264.4478477626876
158,0.8710000000001,1.529022097588,18.64489411131,1.767932891846,1276.0782711657146
159,0.8744999999999,1.53948199749,18.63443421141,1.783420562744,1287.2571345688764
160,0.8780000000002,1.549957156181,18.62395905272,1.798984527588,1298.4910662651625
161,0.8815,1.560439944267,18.61347626463,1.815158843994,1310.1655443021114
162,0.8850000000002,1.570960879326,18.60295532957,1.831912994385,1322.258541363484
163,0.8885,1.581497073174,18.59241913573,1.848484039307,1334.219374522369
164,0.8919999999998,1.592071413994,18.5818447949,1.865314483643,1346.367439876144
165,0.8955000000001,1.602691531181,18.57122467772,1.880558013916,1357.3700847428966
166,0.8989999999999,1.613334536552,18.56058167235,1.895969390869,1368.493879853656
167,0.9025000000001,1.623969912529,18.54994629637,1.911319732666,1379.5736203304934
168,0.9059999999999,1.634590029716,18.53932617918,1.927616119385,1391.336207636008
169,0.9095000000002,1.64518725872,18.52872895018,1.943943023682,1403.1208222584835
170,0.913,1.65577685833,18.51813935057,1.959674835205,1414.4759041980549
171,0.9164999999998,1.666343569756,18.50757263914,1.975772857666,1426.0953139426015
172,0.9200000000001,1.676864504814,18.49705170408,1.991199493408,1437.2301227118414
173,0.9234999999999,1.687377810478,18.48653839842,2.007831573486,1449.2350105046482
174,0.9270000000001,1.697868227959,18.47604798094,2.02453994751,1461.2949665905796
175,0.9304999999999,1.708351016045,18.46556519285,2.04080581665,1473.0355265784112
176,0.9340000000002,1.718818545341,18.45509766356,2.056446075439,1484.3245265670998
177,0.9375,1.72925555706,18.44466065184,2.072986602783,1496.263332409024
178,0.9409999999998,1.73967730999,18.43423889891,2.088840484619,1507.7065236171609
179,0.9445000000001,1.750060915947,18.42385529295,2.104816436768,1519.2378240938635
180,0.9479999999999,1.760429263115,18.41348694578,2.121463775635,1531.2537255451512
181,0.9515000000001,1.770789980888,18.40312622801,2.138919830322,1543.8533508980695
182,0.9549999999999,1.781165957451,18.39275025145,2.155612945557,1555.90229332552
183,0.9585000000002,1.791557192802,18.3823590161,2.171634674072,1567.4666347769426
184,0.962,1.801963686943,18.37195252196,2.187519073486,1578.9318533020403
185,0.9654999999998,1.812385439873,18.36153076903,2.203037261963,1590.132744022885
186,0.9690000000001,1.822814822197,18.3511013867,2.21985244751,1602.2697957181797
187,0.9724999999999,1.833282351494,18.3406338574,2.237323760986,1614.8804347295784
188,0.9760000000001,1.843778133392,18.33013807551,2.254525661469,1627.2966138336344
189,0.9794999999999,1.854321956635,18.31959425226,2.271020412445,1639.202378699395
190,0.9830000000002,1.864911556244,18.30900465265,2.286950588226,1650.7006381999345
191,0.9865,1.875554561615,18.29836164728,2.303369045258,1662.5513347740148
192,0.9900000000002,1.88622045517,18.28769575373,2.320077419281,1674.6112908592243
193,0.9935,1.896939754486,18.27697645441,2.33701467514,1686.8364518223623
194,0.9969999999998,1.907681941986,18.26623426691,2.353311061859,1698.599039127877
195,1.0005,1.918431758881,18.25548445002,2.368493556976,1709.5576293607076
196,1.004,1.929196834564,18.24471937433,2.384133815765,1720.846629349396
197,1.0075,1.939939022064,18.23397718683,2.400292873383,1732.5100937285863
198,1.011,1.950658321381,18.22325788752,2.417306423187,1744.790322984127
199,1.0145,1.961354732513,18.21256147639,2.434792995453,1757.411975654728
200,1.018,1.972028255463,18.20188795344,2.451882839203,1769.747273203393
201,1.0215,1.982663631439,18.19125257746,2.46901845932,1782.1156117274995
202,1.025,1.993268489838,18.18064771906,2.485482692719,1793.9993492770213
203,1.0285,2.003819942474,18.17009626642,2.502633571625,1806.3787014596082
204,1.032,2.014340877533,18.15957533137,2.520104885101,1818.989340471007
205,1.0355,2.024831295013,18.14908491389,2.536843776703,1831.071323873899
206,1.039,2.035291194916,18.13862501398,2.553430080414,1843.0431706912645
207,1.0425,2.045697689056,18.12821851984,2.570245265961,1855.180222386559
208,1.046,2.056073665619,18.11784254328,2.587808132172,1867.8569433495627
209,1.0495,2.066426753998,18.1074894549,2.606072902679,1881.0402926041122
210,1.053,2.076756954193,18.09715925471,2.62282705307,1893.1332896654847
211,1.0565,2.087071895599,18.0868443133,2.639779567719,1905.3694642878254
212,1.06,2.097379207611,18.07653700129,2.656701564789,1917.583611592483
213,1.0635,2.107678890228,18.06623731867,2.673821926117,1929.9409364581093
214,1.067,2.11798620224,18.05593000666,2.691476345062,1942.6837393719957
215,1.0705,2.128308773041,18.04560743586,2.708123683929,1954.699640823283
216,1.074,2.138669490814,18.03524671808,2.724664211273,1966.6384466652073
217,1.0775,2.149060726166,18.02485548273,2.741281032562,1978.6323207995335
218,1.081,2.159467220306,18.01444898859,2.758141994476,1990.8024134702696
219,1.0845,2.169888973236,18.00402723566,2.775323390961,2003.203792970539
220,1.088,2.180333614349,17.99358259455,2.792382717133,2015.5170632022432
221,1.0915,2.190808773041,17.98310743586,2.809457302094,2027.841347092428
222,1.095,2.201329708099,17.9725865008,2.826867580414,2040.4079314699047
223,1.0985,2.211865901947,17.96205030695,2.844399929047,2053.062625115947
224,1.102,2.222447872162,17.95146833674,2.862756252289,2066.3120563221014
225,1.1055,2.233060359955,17.94085584894,2.880883693695,2079.396282650326
226,1.109,2.243703365326,17.93021284357,2.897973537445,2091.731580198991
227,1.1125,2.254369258881,17.91954695002,2.915048122406,2104.055864089176
228,1.116,2.265035152435,17.90888105646,2.931939601898,2116.247984076873
229,1.1195,2.27570104599,17.89821516291,2.949700832367,2129.0678826008443
230,1.123,2.286344051361,17.88757215754,2.967202663422,2141.700548929926
231,1.1265,2.296971797943,17.87694441096,2.984719753265,2154.344228916766
232,1.13,2.307584285736,17.86633192316,3.002648830414,2167.285277684745
233,1.1335,2.318173885345,17.85574232355,3.020425319672,2180.1161898671967
234,1.137,2.328763484955,17.84515272394,3.038079738617,2192.8589927810835
235,1.1405,2.339322566986,17.83459364191,3.05593252182,2205.7449732559376
236,1.144,2.349858760834,17.82405744806,3.073556423187,2218.4657488528633
237,1.1475,2.360387325287,17.81352888361,3.090905666351,2230.9882785964182
238,1.151,2.370900630951,17.80301557795,3.108453273773,2243.6539859009413
239,1.1545,2.381391048431,17.79252516047,3.126214504242,2256.4738844249127
240,1.158,2.391889095306,17.78202711359,3.144006252289,2269.3158102658454
241,1.1615,2.402394771576,17.77152143732,3.162469387054,2282.6423370813627
242,1.165,2.41290807724,17.76100813166,3.180490016937,2295.649467800224
243,1.1685,2.423451900482,17.75046430842,3.198739528656,2308.8218033970147
244,1.172,2.434041500092,17.73987470881,3.216439723969,2321.5976472870643
245,1.1755,2.44464635849,17.72926985041,3.233560085297,2333.95497215269
246,1.179,2.455296993256,17.71861921564,3.250497341156,2346.1801331158285
247,1.1825,2.465947628021,17.70796858088,3.267587184906,2358.5154306644936
248,1.186,2.476613521576,17.69730268732,3.285562038422,2371.489520407914
249,1.1895,2.487287044525,17.68662916437,3.303277492523,2384.276377955722
