,time,travel,position,force,stress
0,0.0,0.0,26.87182666958,-0.009075872600079,-5.0155207888016164
1,0.0,0.0,26.87182190121,-0.009026758372784,-4.988379219183081
2,0.0,0.0,26.87181185783,-0.008363988250494,-4.6221183125994925
3,0.0,0.0,26.87181884647,-0.007971551269293,-4.4052492660362965
4,0.0,0.0,26.87181811632,-0.007975120097399,-4.4072214765714195
5,0.0,0.0,27.02277170969,-0.007335700560361,-4.053864601470277
6,0.0,0.0,27.02277133465,-0.007085718680173,-3.915719282319839
7,0.008000001311302,9.305775165558e-06,27.02276202888,-0.00738699035719,-4.082208437218591
8,0.01100000739098,-4.991888999939e-07,27.02277183384,-0.007658072281629,-4.232014090889877
9,0.01299999654293,-1.216980990648e-06,27.02277255163,-0.007824372500181,-4.32391513887534
10,0.01399999856949,-1.5746088593e-06,27.02277290926,-0.007877897471189,-4.353494179551637
11,0.1140000075102,-5.911603693676e-06,27.02277724626,-0.008700487203896,-4.808074811832749
12,0.2144999951124,-1.708879790385e-05,27.02278842345,-0.01012972276658,-5.597900869624016
13,0.3145000040531,3.349429243826e-05,27.02273784036,-0.00836528185755,-4.62283318745151
14,0.4150000065565,9.131574188359e-05,27.02268001891,-0.008965079672635,-4.9542942538629555
15,0.4905000030994,0.0101355034858,27.01263583117,-0.008614529855549,-4.760572947650467
16,0.5119999945164,0.02043900080025,27.00233233385,0.01039982866496,5.747167150476288
17,0.52349999547,0.03066719137132,26.99210414328,0.02305724471807,12.741925246390053
18,0.5320000052452,0.04122246056795,26.98154887409,0.0176310762763,9.743308824317335
19,0.53900000453,0.05123985558748,26.97153147907,0.01858817785978,10.272223574497621
20,0.5454999953508,0.06144035607576,26.96133097858,0.02930938452482,16.19699106286877
21,0.5515000075102,0.0721558406949,26.95061549396,0.04487907141447,24.80113214231625
22,0.5565000027418,0.08231819421053,26.94045314044,0.03773986548185,20.855854663401466
23,0.5614999979734,0.09308326989412,26.92968806476,0.02222167700529,12.280172705497948
24,0.5664999932051,0.1037644222379,26.91900691242,0.01473914831877,8.145167749641821
25,0.5715000033379,0.1139496639371,26.90882167072,0.006281964015216,3.4715473102327667
26,0.5770000070333,0.1241349056363,26.89863642902,0.009720675647259,5.371852706438469
27,0.5830000042915,0.1341637372971,26.88860759736,0.02074133604765,11.462104716366714
28,0.5894999951124,0.1441773176193,26.87859401703,0.02810751646757,15.532813138370189
29,0.597000002861,0.1546066999435,26.86816463471,0.01739340275526,9.6119653669716
30,0.6069999933243,0.164702296257,26.8580690384,0.02611952275038,14.434205405986788
31,0.6210000067949,0.1750878095627,26.84768352509,0.06967001408339,38.50113585643571
32,0.6319999992847,0.1855763196945,26.83719501496,0.07109396904707,39.28804374258123
33,0.6414999961853,0.1960209608078,26.82675037385,0.06580203026533,36.36360549378393
34,0.6504999995232,0.2061260938644,26.81664524079,0.06580742448568,36.36658645500903
35,0.6599999964237,0.2165440320969,26.80622730256,0.06693931668997,36.992094230564355
36,0.6700000017881,0.226656794548,26.79611454011,0.06717010587454,37.11963325673264
37,0.6815000027418,0.2368592023849,26.78591213227,0.0836534127593,46.22866023315702
38,0.6924999952316,0.2470291852951,26.77574214936,0.09398361295462,51.93734920612245
39,0.702500000596,0.2573708295822,26.76540050507,0.09356388449669,51.70539830738669
40,0.7119999974966,0.2675751447678,26.75519618989,0.09574261307716,52.90941019362762
41,0.7214999943972,0.2777069807053,26.74506435395,0.09679677337408,53.4919616591347
42,0.7314999997616,0.2878388166428,26.73493251801,0.09749724715948,53.8790584141788
43,0.7425000071526,0.2980526685715,26.72471866608,0.1091816648841,60.33611687953932
44,0.7534999996424,0.3082302808762,26.71454105378,0.1214249357581,67.10200951568561
45,0.7639999985695,0.3187276422977,26.70404369236,0.1226580664515,67.78346383975834
46,0.7740000039339,0.3292028009892,26.69356853366,0.1248383447528,68.98833213478575
47,0.7839999943972,0.3396970331669,26.68307430149,0.1276845932007,70.56122973808755
48,0.7939999997616,0.3499356806278,26.67283565403,0.1303467750549,72.03240821553713
49,0.8044999986887,0.3601571619511,26.6626141727,0.1381306648254,76.33395173448683
50,0.8149999976158,0.3701840937138,26.65258724094,0.1481671333313,81.88031831052889
51,0.8254999965429,0.3805238306522,26.642247504,0.1538825035095,85.03875378087798
52,0.8355000019073,0.3907472193241,26.63202411533,0.1582360267639,87.4446035926949
53,0.8455000072718,0.4011270105839,26.62164432407,0.1627111434937,89.91764855262862
54,0.855499997735,0.4113923609257,26.61137897373,0.1653270721436,91.36326652279283
55,0.8659999966621,0.4218484461308,26.60092288852,0.1718254089355,94.95438604469149
56,0.8764999955893,0.4320680201054,26.59070331455,0.1808853149414,99.96108335297946
57,0.8869999945164,0.4423543512821,26.58041698337,0.1879634857178,103.87263150267619
58,0.8969999998808,0.452406078577,26.57036525608,0.1922364234924,106.23394805945283
59,0.9070000052452,0.4627400934696,26.56003124118,0.1970477104187,108.89276784054331
60,0.9169999957085,0.4731465876102,26.54962474704,0.2008719444275,111.0061211254067
61,0.9270000010729,0.4833928644657,26.53937847019,0.2042045593262,112.8477952037046
62,0.9375,0.4938642084599,26.52890712619,0.2092351913452,115.62782976169146
63,0.9479999989271,0.5041124224663,26.51865891219,0.217381477356,120.12964117300804
64,0.9584999978542,0.5143873095512,26.5083840251,0.2239856719971,123.77926000034162
65,0.9685000032187,0.5244123339653,26.49835900069,0.2286767959595,126.37167516448328
66,0.9784999936819,0.5346090197563,26.4881623149,0.2335138320923,129.04472450632088
67,0.9884999990463,0.5447522997856,26.47801903487,0.2386455535889,131.88062326588624
68,0.9989999979734,0.555170238018,26.46760109664,0.2440223693848,134.85196636315038
69,1.009499996901,0.5652639269829,26.45750740767,0.2517509460449,139.12294267745443
70,1.019999995828,0.5752812027931,26.44749013186,0.2602564394474,143.82325975538282
71,1.030499994755,0.5855236649513,26.4372476697,0.2663055956364,147.16615249501575
72,1.040500000119,0.5955372452736,26.42723408938,0.2701288759708,149.27897875906365
73,1.050500005484,0.6056309342384,26.41714040041,0.2741543352604,151.5035334262686
74,1.060499995947,0.6157093644142,26.40706197024,0.2781340181828,153.7027910965407
75,1.070999994874,0.6261120438576,26.3966592908,0.2837282717228,156.79429492918075
76,1.081499993801,0.6363468766212,26.38642445803,0.2901674807072,160.35273916344812
77,1.091999992728,0.6466255784035,26.37614575625,0.2978712618351,164.61001293776528
78,1.102500006557,0.6570778489113,26.36569348574,0.3052336275578,168.6786132767168
79,1.11249999702,0.6671944260597,26.35557690859,0.30929723382,170.92424877466232
80,1.122500002384,0.6773834824562,26.3453878522,0.3130766451359,173.01283208335306
81,1.132499992847,0.6874695420265,26.33530179263,0.3188044130802,176.1781188236956
82,1.142499998212,0.6974831223488,26.3252882123,0.3253294527531,179.7839949272121
83,1.152500003576,0.7075729966164,26.31519833804,0.3309790194035,182.9060659644978
84,1.16249999404,0.7176933884621,26.30507794619,0.3376814424992,186.60996793107398
85,1.172499999404,0.7278366684914,26.29493466616,0.3443190157413,190.27803248529176
86,1.182500004768,0.738071501255,26.2846998334,0.3495222628117,193.15345780259238
87,1.192499995232,0.748310148716,26.27446118594,0.3543926775455,195.84495287131415
88,1.202500000596,0.7584305405617,26.26434079409,0.3605324327946,199.2379125840526
89,1.21250000596,0.7685280442238,26.25424329043,0.366462379694,202.5149277274969
90,1.222499996424,0.7785568833351,26.24421445132,0.3717667162418,205.44621724626558
91,1.232999995351,0.7889481186867,26.23382321597,0.3782841265202,209.04787718364503
92,1.243499994278,0.7992745041847,26.22349683047,0.384658485651,212.570484005554
93,1.253999993205,0.8096390366554,26.213132298,0.390403419733,215.74525711974636
94,1.264500007033,0.8200818896294,26.20268944502,0.3966729044914,219.2099081264778
95,1.274499997497,0.8301526904106,26.19261864424,0.4029747843742,222.6924613699465
96,1.284500002861,0.8403188586235,26.18245247603,0.4090401530266,226.04431346266907
97,1.294499993324,0.8504850268364,26.17228630782,0.4143540263176,228.98087318915046
98,1.304499998689,0.8605634570122,26.16220787764,0.4206559062004,232.4634264326192
99,1.314999997616,0.8709852099419,26.15178612471,0.4271094202995,236.02977597840047
100,1.325499996543,0.8812734484673,26.14149788619,0.4323880076408,238.946835936422
101,1.33599999547,0.8915349841118,26.13123635054,0.4384486079216,242.29605292528814
102,1.346499994397,0.9018537402153,26.12091759444,0.4450814127922,245.96148237570475
103,1.356999993324,0.9123021960258,26.11046913863,0.4509379267693,249.19791691994865
104,1.366999998689,0.9223234057426,26.10044792891,0.4575697779655,252.86281934954982
105,1.377000004053,0.9324170947075,26.09035423995,0.4639994502068,256.41599337615963
106,1.386999994516,0.9425260424614,26.08024529219,0.4704214930534,259.9649512365219
107,1.396999999881,0.9525396227837,26.07023171187,0.4752976298332,262.6596084299156
108,1.407499998808,0.9627954363823,26.05997589827,0.4795500636101,265.0095940402092
109,1.418500006199,0.9729024767876,26.04986885787,0.4815242290497,266.1005599714367
110,1.430999994278,0.9829084277153,26.03986290694,0.4842185974121,267.58952539986166
111,1.447999998927,0.9929258227348,26.02984551192,0.4887900352478,270.1157994574623
112,1.46099999547,0.9975540041924,26.02521733046,0.4933934211731,272.6597287108343
113,1.561000004411,1.003295898438,26.01947543622,0.501318693161,277.0394030588274
114,1.661500006914,1.002675771713,26.02009556294,0.4996612370014,276.1234574311939
115,1.761999994516,1.001896858215,26.02087447644,0.4957986176014,273.9888915603861
116,1.862000003457,1.001275777817,26.02149555684,0.4944927096367,273.26721896384066
117,1.96250000596,1.000818133354,26.0219532013,0.4940706789494,273.0339958040481
118,2.062999993563,1.000514149666,26.02225718499,0.4937014579773,272.82995641931575
119,2.163000002503,1.000293374062,26.02247796059,0.4917452037334,271.7488885968811
120,2.263500005007,1.000169038773,26.02260229588,0.4883027076721,269.84649184434545
121,2.36400000751,1.000090003014,26.02268133164,0.4889120161533,270.18320870771623
122,2.464499995112,1.000030875206,26.02274045945,0.4882605671883,269.82320411413343
123,2.564500004053,1.000049591064,26.02272174359,0.4890913963318,270.2823380205669
124,2.665000006557,1.000028967857,26.0227423668,0.4868242740631,269.02947789675676
125,2.765499994159,1.00000166893,26.02276966572,0.4856159985065,268.36175905144427
126,2.865500003099,1.000032424927,26.02273890973,0.4843383431435,267.65569944523133
127,2.966000005603,0.9999947547913,26.02277657986,0.4850494265556,268.0486593062951
128,3.066499993205,1.000006318092,26.02276501656,0.4836926162243,267.29885697620983
129,3.166500002146,1.000028014183,26.02274332047,0.4799256026745,265.2171249375126
130,3.267000004649,1.000007748604,26.02276358605,0.4820499122143,266.3910637011113
131,3.367500007153,0.9999916553497,26.0227796793,0.4828346669674,266.82473591663467
132,3.467999994755,1.000001072884,26.02277026177,0.487926274538,269.6384668650552
133,3.568000003695,1.00000834465,26.02276299,0.4823262989521,266.5438009077985
134,3.668500006199,1.000017881393,26.02275345326,0.4819775521755,266.3510760002178
135,3.768999993801,0.9999933838844,26.02277795077,0.4805648326874,265.5703770775325
136,3.869000002742,1.000041484833,26.02272984982,0.4844080209732,267.6942049001642
137,3.969500005245,1.000027060509,26.02274427414,0.4808273911476,265.71547248305825
138,4.069999992847,1.000004768372,26.02276656628,0.4797393679619,265.11420766290985
139,4.170000001788,0.9999868869781,26.02278444767,0.4786246418953,264.49818626119884
140,4.270500004292,1.000005722046,26.02276561261,0.4809831082821,265.80152509305753
141,4.371000006795,1.000021100044,26.02275023461,0.4791937172413,264.8126694358781
142,4.471499994397,1.000008940697,26.02276239396,0.4794938862324,264.97854922301866
143,4.571500003338,1.000020503998,26.02275083066,0.4778773486614,264.08521608024637
144,4.672000005841,1.000004172325,26.02276716233,0.4793562889099,264.9025100076294
145,4.772499993443,1.00000679493,26.02276453972,0.4770398437977,263.6223930284361
146,4.872500002384,1.000009655952,26.0227616787,0.4763078987598,263.217904587973
147,4.973000004888,1.000033020973,26.02273831368,0.4758078455925,262.94156454149885
148,5.073500007391,1.000002861023,26.02276847363,0.4764263033867,263.28333751038997
149,5.173999994993,1.000020980835,26.02275035382,0.4780486524105,264.1798821859388
150,5.274000003934,1.0,26.02277133465,0.4761197865009,263.11394974123647
151,5.374500006437,1.000044465065,26.02272686959,0.47593998909,263.01458985686196
152,5.47499999404,1.000024080276,26.02274725438,0.4731891751289,261.49443138660064
153,5.57500000298,0.9999963641167,26.02277497054,0.4752710163593,262.64490125656823
154,5.675500005484,0.9999958276749,26.02277550698,0.4742417931557,262.07613056074246
155,5.775999993086,1.000007033348,26.0227643013,0.474738150835,262.3504284017224
156,5.876000002027,0.9999979734421,26.02277336121,0.4750267863274,262.5099345314697
157,5.975999996066,1.000009655952,26.0227616787,0.4735645055771,261.70184699814206
158,6.076000005007,1.000015258789,26.02275607586,0.4731631278992,261.4800371318763
159,6.175999999046,1.000010251999,26.02276108265,0.4728046059608,261.2819102613789
160,6.275999993086,1.00001680851,26.02275452614,0.4738329052925,261.8501704058864
161,6.376000002027,1.000014781952,26.0227565527,0.4716693162918,260.65452497435626
162,6.475999996066,0.9999891519547,26.0227821827,0.4726423621178,261.1922508530467
163,6.576000005007,0.9999934434891,26.02277789116,0.4720990359783,260.8919972391146
164,6.675999999046,1.000020027161,26.02275130749,0.4716643095016,260.65175811529605
165,6.775999993086,1.000024676323,26.02274665833,0.4722737669945,260.98855732571076
166,6.876000002027,1.000002980232,26.02276835442,0.4723085165024,261.00776064498956
167,6.975999996066,1.000008225441,26.02276310921,0.4787808060646,264.58448591216387
168,7.076000005007,1.000021576881,26.02274975777,0.4720864593983,260.8850471527458
169,7.175999999046,1.000034451485,26.02273688317,0.4713548123837,260.4807234063152
170,7.275999993086,1.000009059906,26.02276227475,0.472129046917,260.9085819239789
171,7.376000002027,0.9999923110008,26.02277902365,0.4695552587509,259.4862516840267
172,7.475999996066,0.9999967813492,26.0227745533,0.4724830985069,261.1042383845419
173,7.576000005007,1.000028133392,26.02274320126,0.4727482795715,261.2507830971997
174,7.675999999046,1.000008702278,26.02276263237,0.4722588956356,260.9803390955738
175,7.775999993086,1.000014781952,26.0227565527,0.4700571596622,259.7636128332479
176,7.876000002027,1.000022768974,26.02274856568,0.4716792702675,260.6600257536482
177,7.975999996066,1.000008106232,26.02276322842,0.4682670235634,258.7743454411255
178,8.076000005007,1.000014901161,26.02275643349,0.4716032743454,260.61802878608904
179,8.175999999046,1.000011444092,26.02275989056,0.4675435721874,258.37455077939967
180,8.275999993086,1.000014901161,26.02275643349,0.4691021740437,259.23586741044954
181,8.376000002027,1.000023841858,26.0227474928,0.4684628248215,258.8825493928277
182,8.475999996066,1.000021219254,26.0227501154,0.4676701128483,258.44447984774814
183,8.576000005007,1.000014424324,26.02275691033,0.4693081080914,259.3496709578189
184,8.675999999046,1.000002861023,26.02276847363,0.4673650860786,258.2759155485359
185,8.775999993086,1.000004529953,26.0227668047,0.4684182703495,258.85792764124557
186,8.876000002027,1.000004649162,26.02276668549,0.4669863879681,258.0666388949747
187,8.975999996066,0.9999827742577,26.0227885604,0.4662352800369,257.6515606309261
188,9.076000005007,0.9999977350235,26.02277359963,0.4680863320827,258.6744914747088
189,9.175999999046,1.000008225441,26.02276310921,0.4656289219856,257.3164742380512
190,9.275999993086,1.000015377998,26.02275595665,0.4653224050999,257.147086468953
191,9.376000002027,1.000000476837,26.02277085782,0.4659858047962,257.5136952915634
192,9.475999996066,0.9999971985817,26.02277413607,0.4694618284702,259.43462011802717
193,9.576000005007,0.9999820590019,26.02278927565,0.4658409357071,257.433637542843
194,9.675999999046,1.000007510185,26.02276382447,0.4689183831215,259.13430062654834
195,9.775999993086,0.9999915957451,26.02277973891,0.4672819077969,258.2299494558608
196,9.876000002027,1.000032186508,26.02273914814,0.4666806459427,257.8976793302062
197,9.975999996066,1.00000333786,26.02276799679,0.4659805297852,257.51078020796785
198,10.07600000501,1.000007390976,26.02276394368,0.4650299549103,256.98547225616477
199,10.17599999905,1.000021100044,26.02275023461,0.4677864015102,258.5087434427722
200,10.27599999309,1.000023365021,26.02274796963,0.4651616513729,257.0582505305068
201,10.37600000203,1.000000596046,26.02277073861,0.4635027050972,256.141481432932
202,10.47599999607,1.000018954277,26.02275238038,0.4651233553886,257.0370873527224
203,10.57600000501,1.000002741814,26.02276859284,0.4660060107708,257.52486154412446
204,10.67599999905,1.000006914139,26.02276442051,0.4647089540958,256.8080803590669
205,10.77599999309,1.000002741814,26.02276859284,0.4644595384598,256.6702479585328
206,10.87600000203,1.000007748604,26.02276358605,0.4627939760685,255.7498226543545
207,10.97599999607,1.000003814697,26.02276751996,0.462681055069,255.6874201014055
208,11.07600000501,0.9999995827675,26.02277175189,0.464344650507,256.6067584252348
209,11.17599999905,1.000022172928,26.02274916173,0.4640788435936,256.4598678551806
210,11.27599999309,1.000016331673,26.02275500298,0.4607270956039,254.6076204226838
211,11.37600000203,1.000010967255,26.0227603674,0.4619882702827,255.30457245127184
212,11.47599999607,1.000002503395,26.02276883126,0.4612814486027,254.91396771427
213,11.57600000501,0.9999896883965,26.02278164626,0.4617326259613,255.16329794632674
214,11.67599999905,1.000008940697,26.02276239396,0.4609803259373,254.74756090636927
215,11.77599999309,1.000014185905,26.02275714875,0.4611780047417,254.85680243020522
216,11.87600000203,1.000000834465,26.02277050019,0.4588961601257,253.59580642324678
217,11.97599999607,1.000014305115,26.02275702954,0.4597859680653,254.08753327043343
218,12.07600000501,0.9999963641167,26.02277497054,0.4598715603352,254.13483338447872
219,12.17599999905,1.000025033951,26.0227463007,0.4621826410294,255.41198587186128
220,12.27599999309,1.000007748604,26.02276358605,0.461969524622,255.2942131993207
221,12.37600000203,0.9999952912331,26.02277604342,0.4612628817558,254.90370727863888
222,12.47599999607,1.000015974045,26.02275536061,0.4612508118153,254.89703717206459
223,12.57600000501,1.00001180172,26.02275953293,0.4588325917721,253.560677195123
224,12.67599999905,0.9999974966049,26.02277383805,0.4595485031605,253.95630509887175
225,12.77599999309,1.000037550926,26.02273378373,0.4598136544228,254.10283334214293
226,12.87600000203,1.00000333786,26.02276799679,0.4588851332664,253.58971274559272
227,12.97599999607,1.000006318092,26.02276501656,0.4612263739109,254.88353226482823
228,13.07600000501,1.000006079674,26.02276525498,0.459702372551,254.04133660612388
229,13.17599999905,0.9999912977219,26.02278003693,0.4559051096439,251.9428881273584
230,13.27599999309,1.000036716461,26.02273461819,0.4587540030479,253.51724738981844
231,13.37600000203,0.9999965429306,26.02277479172,0.4598814845085,254.14031769432873
232,13.47599999607,1.000016927719,26.02275440693,0.4580887854099,253.14963393384755
233,13.57600000501,0.9999762177467,26.02279511691,0.4593864679337,253.8667609763015
234,13.67599999905,1.000016689301,26.02275464535,0.4586130678654,253.4393636017961
235,13.77599999309,0.9999918937683,26.02277944088,0.4597265720367,254.05470975810107
236,13.87600000203,1.000015616417,26.02275571824,0.4602958261967,254.3692917492109
237,13.97599999607,1.000023007393,26.02274832726,0.4585270881653,253.39184938555834
238,14.07600000501,0.9999883174896,26.02278301716,0.4595606327057,253.96300814427468
