,time,travel,position,force,stress
0,0.0,0.0,63.76178004963,0.003145373659208,1.6019256503487866
1,0.0,0.0,63.76178004963,0.003170765237883,1.6148574751776923
2,0.0,0.0,63.76177432759,0.003823234932497,1.9471575619472203
3,0.0,0.0,63.76177623494,0.003906577359885,1.9896035116690682
4,0.0,0.0,63.76178004963,0.003921299707144,1.9971015415576612
5,0.0,0.0,44.98175644289,0.003401893656701,1.7325702122781677
6,0.0,0.0,44.9817641042,0.003261822741479,1.6612326809470088
7,0.008000001311302,-3.213761374354e-06,44.98176731796,0.003454155754298,1.759187080018691
8,0.01099999248981,1.660082489252e-07,44.98176393819,0.003661550115794,1.8648121609834136
9,0.01299999654293,2.628657966852e-07,44.98176384134,0.003506697248667,1.7859462433667275
10,0.01399999856949,-2.762069925666e-06,44.98176686627,0.003397739958018,1.7304547509101236
11,0.1145000010729,2.902334745158e-05,44.98173508086,0.004499197937548,2.2914226934707993
12,0.2149999886751,4.71756720799e-06,44.98175938664,0.003772989846766,1.921567949914693
13,0.3149999976158,9.452461199544e-06,44.98175465174,0.004400151781738,2.2409789005382823
14,0.4155000001192,0.001910289516672,44.97985381469,0.003063672920689,1.5603158059022033
15,0.4254999905825,0.0124083366245,44.96935576758,0.189838886261,96.68415084639439
16,0.4289999902248,0.02353199385107,44.95823211035,0.2895092964172,147.4458739067332
17,0.4314999878407,0.03554065898061,44.94622344522,0.3593945503235,183.03814145367664
18,0.4334999918938,0.04806812480092,44.9336959794,0.4090161323547,208.3102056594541
19,0.434999987483,0.05934436991811,44.92241973428,0.4404492378235,224.318954818137
20,0.4364999979734,0.07237537950277,44.9093887247,0.4671216011047,237.90307789060338
21,0.4379999935627,0.0871764048934,44.89458769931,0.4888806343079,248.98486250241126
22,0.4389999955893,0.09807118028402,44.88369292392,0.5007214546204,255.01534276800257
23,0.4399999976158,0.1098509654403,44.87191313876,0.5110669136047,260.28424176290116
24,0.4409999996424,0.1224547252059,44.859309379,0.5205273628235,265.10240898543515
25,0.4419999867678,0.1359434872866,44.84582061692,0.5294995307922,269.6718966093372
26,0.4429999887943,0.1502867490053,44.8314773552,0.5380749702454,274.0393320594557
27,0.4439999908209,0.1655455380678,44.81621856614,0.5463757514954,278.26688523533414
28,0.4449999928474,0.1817198544741,44.80004424973,0.5544934272766,282.4011835617193
29,0.445999994874,0.1987486630678,44.78301544114,0.5623669624329,286.4111420888647
30,0.4469999969006,0.2167540341616,44.76501007004,0.5698132514954,290.2035059672263
31,0.4479999989271,0.2356138974428,44.74615020676,0.5767254829407,293.72387653463346
32,0.4490000009537,0.2554503381252,44.72631376608,0.5831799507141,297.0111099783581
33,0.4494999945164,0.2657652795315,44.71599882467,0.5862622261047,298.5808999443885
34,0.4499999880791,0.2762633264065,44.7055007778,0.5891766548157,300.0652062984512
35,0.4504999965429,0.2870055139065,44.6947585903,0.5918774604797,301.440715328071
36,0.4509999901056,0.2979308068752,44.68383329733,0.5942883491516,302.66857084607784
37,0.4514999985695,0.3091612756252,44.67260282858,0.5963635444641,303.72545914004746
38,0.4519999921322,0.3206358850002,44.6611282192,0.59805727005,304.58806649760646
39,0.452500000596,0.3323546350002,44.6494094692,0.5994153022766,305.27970663117924
40,0.4529999941587,0.344256490469,44.63750761373,0.6004986763,305.8314644905119
41,0.4534999877214,0.356463521719,44.62530058248,0.6014103889465,306.2957959284955
42,0.4539999961853,0.3688536584377,44.61291044577,0.6022267341614,306.71155713240194
43,0.454499989748,0.3814879357815,44.60027616842,0.6030201911926,307.1156614800707
44,0.4549999982119,0.3943663537502,44.58739775045,0.6038365364075,307.5314226839771
45,0.4554999917746,0.4075499475002,44.5742141567,0.6046986579895,307.9704976002059
46,0.4560000002384,0.420916646719,44.56084745748,0.6056141853333,308.4367718475709
47,0.4564999938011,0.4345274865627,44.54723661764,0.6066060066223,308.94190228215695
48,0.4569999873638,0.4483824670315,44.53338163717,0.6076817512512,309.48977452277774
49,0.4574999958277,0.4624815881252,44.51928251608,0.608856678009,310.08815980685705
50,0.4579999893904,0.476824849844,44.50493925436,0.6101460456848,310.7448293718698
51,0.4584999978542,0.4914122521877,44.49035185202,0.6115345954895,311.4520119803411
52,0.4589999914169,0.5061827301979,44.47558137401,0.6129841804504,312.1902795386097
53,0.4594999998808,0.5212584137917,44.46050569041,0.614456653595,312.9402039531157
54,0.4599999934435,0.5365782380104,44.44518586619,0.6158986091614,313.6745858926723
55,0.4604999870062,0.5520811676979,44.42968293651,0.617271900177,314.37399726366885
56,0.46099999547,0.5678282380104,44.41393586619,0.6185460090637,315.0228955912069
57,0.4614999890327,0.5838194489479,44.39794465526,0.6197361946106,315.62905211276103
58,0.4619999974966,0.6001768708229,44.38158723338,0.6208348274231,316.18858120956844
59,0.4624999910593,0.6166563630104,44.36510774119,0.6218571662903,316.70925411910395
60,0.4629999995232,0.6333799958229,44.34838410838,0.6227993965149,317.1891280319861
61,0.4634999930859,0.6503477692604,44.33141633494,0.6236119270325,317.6029464265111
62,0.4639999866486,0.6675596833229,44.31420442088,0.624237537384,317.9215671621613
63,0.4644999951124,0.6850157380104,44.29674836619,0.6245789527893,318.09544860024516
64,0.4649999886751,0.7027159333229,44.27904817088,0.6245379447937,318.0745633995859
65,0.465499997139,0.7206602692604,44.26110383494,0.623996257782,317.7986844699195
66,0.4659999907017,0.7388487458229,44.24291535838,0.6228365898132,317.208070423264
67,0.4664999991655,0.7572813630104,44.22448274119,0.6209216117859,316.23278012260107
68,0.4669999927282,0.7758360505104,44.20592805369,0.6181445121765,314.8184149056584
69,0.4675000011921,0.7947569489479,44.18700715526,0.6143450737,312.8833767792312
70,0.4679999947548,0.8137999176979,44.16796418651,0.6094622612,310.3965807934203
71,0.4684999883175,0.8332090973854,44.14855500682,0.6033282279968,307.2725433362072
72,0.4689999967813,0.8527403473854,44.12902375682,0.5959734916687,303.5268068825923
73,0.469499990344,0.8725157380104,44.10924836619,0.5873064994812,299.112744007778
74,0.4699999988079,0.8925352692604,44.08922883494,0.5773577690125,294.0458971867139
75,0.4704999923706,0.9126768708229,44.06908723338,0.5661883354187,288.35735136914604
76,0.4710000008345,0.9330626130104,44.04870149119,0.5539202690125,282.1092764548217
77,0.4714999943972,0.9536924958229,44.02807160838,0.5405535697937,275.301672443639
78,0.4719999879599,0.9744444489479,44.00731965526,0.5263323783875,268.0588791349904
79,0.4724999964237,0.9954405426979,43.98632356151,0.51131772995,260.41198147862195
80,0.4729999899864,1.016558766365,43.96520533784,0.49569272995,252.45423432402717
81,0.4734999984503,1.037921071053,43.94384303315,0.479823589325,244.37214737014187
82,0.473999992013,1.059405446053,43.92235865815,0.4635882377625,236.10355071732073
83,0.4745000004768,1.081011891365,43.90075221284,0.4474749565125,227.8971239641449
84,0.4749999940395,1.10274040699,43.87902369721,0.431483745575,219.75286711061432
85,0.4754999876022,1.12471306324,43.85705104096,0.41561460495,211.670780156729
86,0.4759999960661,1.146807789803,43.8349563144,0.39998960495,203.71303300213424
87,0.4764999896288,1.169024586678,43.81273951753,0.38436460495,195.75528584753945
88,0.4769999980927,1.191363453865,43.79040065034,0.3686175346375,187.73536879329941
89,0.4774999916553,1.213824391365,43.76793971284,0.352870464325,179.71545173905938
90,0.4780000001192,1.236285328865,43.74547877534,0.3368792533875,171.5711948855288
91,0.4784999936819,1.25899040699,43.72277369721,0.320643901825,163.30259823270768
92,0.4789999872446,1.281817555428,43.69994654878,0.304530620575,155.09617147953182
93,0.4794999957085,1.304766774178,43.67699733003,0.288417339325,146.88974472635599
94,0.4799999892712,1.327715992928,43.65404811128,0.2725481987,138.80765777247066
95,0.480499997735,1.35078728199,43.63097682221,0.2570452690125,130.91208051752116
96,0.4809999912977,1.373980641365,43.60778346284,0.2419085502625,123.20301296150748
97,0.4814999997616,1.39717400074,43.58459010346,0.2273211479187,115.77370995387206
98,0.4819999933243,1.420489430428,43.56127467378,0.2131609916687,108.56200159502056
99,0.482499986887,1.443926930428,43.53783717378,0.1996111869812,101.66114273439541
100,0.4829999953508,1.467364430428,43.51439967378,0.1867327690125,95.10221832184472
101,0.4834999889135,1.49092400074,43.49084010346,0.1745867729187,88.91631330711472
102,0.4839999973774,1.514483571053,43.46728053315,0.1632342338562,83.13451264010446
103,0.4844999909401,1.538043141365,43.44372096284,0.152675151825,77.75681632081393
104,0.484999999404,1.56172478199,43.42003932221,0.142909526825,72.7832243491922
105,0.4854999929667,1.585528492928,43.39623561128,0.1339373588562,68.21373672523927
106,0.4860000014305,1.609210133553,43.37255397065,0.1256976127625,64.01726849920891
107,0.4864999949932,1.63301384449,43.34875025971,0.1182207986712,60.2093583513384
108,0.4869999885559,1.65693962574,43.32482447846,0.1114153787494,56.743386446152705
109,0.4874999970198,1.680743336678,43.30102076753,0.1053423807025,53.650433938787714
110,0.4879999905825,1.704669117928,43.27709498628,0.0999712869525,50.914958354395765
111,0.4884999990463,1.728594899178,43.25316920503,0.09524106234312,48.505874743138946
112,0.488999992609,1.75264275074,43.22912135346,0.09106015414,46.376555680290934
113,0.4895000010729,1.776690602303,43.2050735019,0.08730649203062,44.464831266196285
114,0.4899999946356,1.800738453865,43.18102565034,0.08390378206968,42.731845313583065
115,0.4904999881983,1.824786305428,43.15697779878,0.0806841775775,41.092114210442844
116,0.4909999966621,1.84883415699,43.13292994721,0.07757138460875,39.50678176948842
117,0.4914999902248,1.873004078865,43.10876002534,0.07447385042906,37.92922056598838
118,0.4919999986887,1.89717400074,43.08459010346,0.07139157503843,36.35943059994272
119,0.4924999922514,1.921343922615,43.06042018159,0.06832455843687,34.79741187135655
120,0.4930000007153,1.94551384449,43.03625025971,0.06531857699156,33.26647809259301
121,0.493499994278,1.969683766365,43.01208033784,0.0623736307025,31.766629263652106
122,0.4939999878407,1.993975758553,42.98778834565,0.05953549593687,30.321179096896994
123,0.4944999963045,2.018145561218,42.96361854298,0.0567583963275,28.90681387996961
124,0.4949999898672,2.042437553406,42.9393265508,0.05405759066343,27.531304850314157
125,0.4954999983311,2.066851615906,42.9149124883,0.05141782015562,26.18688077048643
126,0.4959999918938,2.091143608093,42.89062049611,0.04885434359312,24.881312877935727
127,0.4965000003576,2.115435600281,42.86632850392,0.04639767855406,23.630143647575906
128,0.4969999939203,2.139849662781,42.84191444142,0.04410886019468,22.46445802922452
129,0.497499987483,2.164263725281,42.81750037892,0.04203366488218,21.407569735254903
130,0.4979999959469,2.188677787781,42.79308631642,0.04021023958921,20.478906859303024
131,0.4984999895096,2.213091850281,42.76867225392,0.03864621371031,19.68235502010116
132,0.4989999979734,2.237505912781,42.74425819142,0.03734158724546,19.017914217639138
133,0.4994999915361,2.261919975281,42.71984412892,0.03628873080015,18.481698833199943
134,0.5,2.286456108093,42.69530799611,0.03548001497984,18.069823248051293
135,0.5004999935627,2.310992240906,42.6707718633,0.03493451327085,17.79200150900862
136,0.5009999871254,2.335528373718,42.64623573048,0.034663669765,17.65406204417545
137,0.5014999955893,2.360064506531,42.62169959767,0.0346807166934,17.662743973517507
138,0.501999989152,2.384600639343,42.59716346486,0.03495918959379,17.804569057082965
139,0.5024999976158,2.409136772156,42.57262733205,0.0354303047061,18.04450601352914
140,0.5029999911785,2.433794975281,42.54796912892,0.03596817702055,18.31844213383953
141,0.5034999996424,2.458331108093,42.52343299611,0.03642975538969,18.55352206687289
142,0.5039999932051,2.482989311218,42.49877479298,0.03666435927153,18.67300484275572
143,0.5044999867678,2.507647514343,42.47411658986,0.03656279295683,18.621277543440097
144,0.5049999952316,2.532183647156,42.44958045705,0.03607069700956,18.370655135492864
145,0.5054999887943,2.556841850281,42.42492225392,0.03519331663847,17.923808981794387
146,0.5059999972582,2.581622123718,42.40014198048,0.03396498411894,17.298224366614477
147,0.5064999908209,2.606280326843,42.37548377736,0.03243910521269,16.521100621048582
148,0.5069999992847,2.630938529968,42.35082557423,0.03066145814955,15.615752406099713
149,0.5074999928474,2.655596733093,42.32616737111,0.02866255678236,14.597720299407117
150,0.5080000013113,2.680377006531,42.30138709767,0.02643477357924,13.463119630883458
151,0.508499994874,2.705035209656,42.27672889455,0.0240086261183,12.22749287543241
152,0.5089999884367,2.729815483093,42.25194862111,0.02141463197768,10.906382507972936
153,0.5094999969006,2.754595756531,42.22716834767,0.01868330873549,9.515331003408711
154,0.5099999904633,2.779253959656,42.20251014455,0.01592146791518,8.108737023935712
155,0.5104999989271,2.804034233093,42.17772987111,0.01319014467299,6.7176855193714875
156,0.5109999924898,2.828814506531,42.15294959767,0.01055037416518,5.373261439543762
157,0.5115000009537,2.853594779968,42.12816932423,0.008047932758927,4.098778496814166
158,0.5119999945164,2.878252983093,42.10351112111,0.005728596355766,2.9175501663948054
159,0.5124999880791,2.903033256531,42.07873084767,0.003546589752659,1.8062633288151753
160,0.5129999965429,2.927813529968,42.05395057423,0.001532429596409,0.7804599846681937
161,0.5134999901056,2.952593803406,42.0291703008,-0.000336772063747,-0.1715166036499006
162,0.5139999985695,2.977252006531,42.00451209767,-0.00199998007156,-1.0185814863169809
163,0.5144999921322,3.002032279968,41.97973182423,-0.003434306243435,-1.7490778071489224
164,0.515000000596,3.026812553406,41.9549515508,-0.004601603839546,-2.34357759108605
165,0.5154999941587,3.051470756531,41.93029334767,-0.005494242999703,-2.7981949822424808
166,0.5159999877214,3.076251029968,41.90551307423,-0.006127482745796,-3.120701336651945
167,0.5164999961853,3.101031303406,41.8807328008,-0.006552821490914,-3.3373245807288523
168,0.516999989748,3.125689506531,41.85607459767,-0.006842738483101,-3.4849780923861178
169,0.5174999982119,3.150469779968,41.83129432423,-0.007063037250191,-3.597175333152274
170,0.5179999917746,3.175127983093,41.80663612111,-0.007252818439156,-3.693830099007111
171,0.5185000002384,3.199786186218,41.78197791798,-0.007420665118843,-3.779313711019105
172,0.5189999938011,3.224566459656,41.75719764455,-0.007542735431343,-3.8414836106643766
173,0.5194999873638,3.249224662781,41.73253944142,-0.007577544543892,-3.8592117461101862
174,0.5199999958277,3.273882865906,41.7078812383,-0.007481223437935,-3.8101558096713553
175,0.5204999893904,3.298663139343,41.68310096486,-0.007225638721138,-3.6799875822890042
176,0.5209999978542,3.323321342468,41.65844276173,-0.006798392627388,-3.4623929335305537
177,0.5214999914169,3.347979545593,41.63378455861,-0.006214743945748,-3.1651431008519166
178,0.5219999998808,3.372637748718,41.60912635548,-0.005486136768013,-2.7940665123438837
179,0.5224999934435,3.397295951843,41.58446815236,-0.004639273975044,-2.362762833554684
180,0.5229999870062,3.421954154968,41.55980994923,-0.003689414123073,-1.8790031833603782
181,0.52349999547,3.446612358093,41.53515174611,-0.002651816466823,-1.3505590363755695
182,0.5239999890327,3.471270561218,41.51049354298,-0.001515036681667,-0.771601845929105
183,0.5244999974966,3.495928764343,41.48583533986,-0.000294333556667,-0.1499028494763889
184,0.5249999910593,3.520586967468,41.46117713673,0.001002663513646,0.5106523342548767
185,0.5254999995232,3.545245170593,41.43651893361,0.002383583923802,1.2139493239918844
186,0.5259999930859,3.569903373718,41.41186073048,0.003848427673802,1.9599881197351439
187,0.5264999866486,3.594561576843,41.38720252736,0.005412453319877,2.7565398403602046
188,0.5269999951124,3.619219779968,41.36254432423,0.007113808300346,3.6230328166663046
189,0.5275000035763,3.644007921219,41.33775618298,0.008981907740235,4.574448048812019
190,0.527999997139,3.668666124344,41.31309797986,0.01099606789649,5.600251392961546
191,0.5284999907017,3.693324327469,41.28843977673,0.0131475571543,6.695995874208185
192,0.5289999991655,3.717982530594,41.26378157361,0.01537534035742,7.830596542731845
193,0.5294999927282,3.742640733719,41.23912337048,0.01757260598242,8.949654736346735
194,0.5300000011921,3.767298936844,41.21446516736,0.01966306008399,10.01431426777583
195,0.5304999947548,3.792079210281,41.18968489392,0.02158566750586,10.993490187186312
196,0.5309999883175,3.816737413406,41.1650266908,0.02330991066992,11.871640019674501
197,0.5314999967813,3.841395616531,41.14036848767,0.0248663071543,12.66430624015426
198,0.531999990344,3.866175889969,41.11558821423,0.02630063332617,13.394802560983655
199,0.5324999988079,3.890834093094,41.09093001111,0.02766629494727,14.090328313268314
200,0.5329999923706,3.915614366531,41.06614973767,0.02898618020117,14.76254035317963
201,0.5335000008345,3.940272569656,41.04149153455,0.03026028908789,15.41143868072779
202,0.5339999943972,3.965052843094,41.01671126111,0.03143521398306,16.009823016177492
203,0.5344999879599,3.989833116531,40.99193098767,0.03248807042837,16.546038400616688
204,0.5349999964237,4.014491081238,40.96727302297,0.0333616361022,16.990941744954117
205,0.5354999899864,4.039271354675,40.94249274953,0.03404446691275,17.338704621096447
206,0.5359999984503,4.064051628113,40.91771247609,0.03455182164907,17.59709826649297
207,0.536499992013,4.08883190155,40.89293220265,0.03491993993521,17.7845793701144
208,0.5370000004768,4.1137342453,40.8680298589,0.03518887609243,17.92154743026705
209,0.5374999940395,4.138514518738,40.84324958547,0.03540440648794,18.031316159329347
210,0.5379999876022,4.163294792175,40.81846931203,0.03559132665396,18.126513818163396
211,0.5384999960661,4.188197135925,40.79356696828,0.03576584905386,18.215397346561303
212,0.5389999896288,4.213099479675,40.76866462453,0.03593178838491,18.299909553889204
213,0.5394999980927,4.237879753113,40.74388435109,0.03610058873892,18.385878868245534
214,0.5399999916553,4.262782096863,40.71898200734,0.03629418462515,18.484476443463972
215,0.5405000001192,4.287684440613,40.69407966359,0.03654404729605,18.61173045680118
216,0.5409999936819,4.312586784363,40.66917731984,0.03688355535269,18.784640490189275
217,0.5414999872446,4.337489128113,40.64427497609,0.03732415288687,19.009034971721587
218,0.5419999957085,4.362513542175,40.61925056203,0.03784295171499,19.27325704521144
219,0.5424999892712,4.387415885925,40.59434821828,0.03837700933218,19.545250356160782
220,0.542999997735,4.412318229675,40.56944587453,0.03884049504995,19.78130169387467
221,0.5434999912977,4.437342643738,40.54442146047,0.03912850469351,19.92798380085294
222,0.5439999997616,4.462244987488,40.51951911672,0.03916593641043,19.94704761773689
223,0.5444999933243,4.48726940155,40.49449470265,0.038908444345,19.815907985672485
224,0.544999986887,4.512293815613,40.46947028859,0.03835531324148,19.534200627902617
225,0.5454999953508,4.537318229675,40.44444587453,0.03751989454031,19.108725377206248
226,0.5459999889135,4.562342643738,40.41942146047,0.0364441499114,18.56085313658038
227,0.5464999973774,4.5873670578,40.3943970464,0.0351242646575,17.888641096669065
228,0.5469999909401,4.612391471863,40.36937263234,0.03356786817312,17.095974876189306
229,0.547499999404,4.637415885925,40.34434821828,0.03172918409109,16.15954076278304
230,0.5479999929667,4.662440299988,40.31932380422,0.02959295548499,15.071568467630641
231,0.5485000014305,4.68746471405,40.29429939015,0.02712103165686,13.812627999811344
232,0.5489999949932,4.712611198425,40.26915290578,0.02435919083655,12.406034020338346
233,0.5494999885559,4.737635612488,40.24412849172,0.02135320939124,10.875100241574806
234,0.5499999970198,4.76266002655,40.21910407765,0.01817938126624,9.258682850797745
235,0.5504999905825,4.787806510925,40.19395759328,0.01492925919592,7.603409272738568
236,0.5509999990463,4.812830924988,40.16893317922,0.01170965470374,5.963678169598349
