,time,travel,position,force,stress
0,0.0,0.0,12.58672524323,-0.01503379363567,-9.046134482194168
1,0.0,0.0,12.58671959569,-0.01506562251598,-9.065286556426368
2,0.0,0.0,12.5867154839,-0.01486561913043,-8.944940516935265
3,0.0,0.0,12.58671660847,-0.01429079193622,-8.599055490915731
4,0.0,0.0,12.58671547319,-0.01423786301166,-8.56720709781077
5,0.0,0.0,12.58672824966,-0.01658568158746,-9.979936518686173
6,0.0,0.0,12.58672313857,-0.01674732938409,-10.077203232763974
7,0.008000001311302,6.634742021561e-06,12.58671650382,-0.01667151227593,-10.031582561555668
8,0.01099999248981,4.43309545517e-06,12.58671870547,-0.01615462079644,-9.720558614474697
9,0.01299999654293,-2.361834049225e-06,12.5867255004,-0.01603672280908,-9.64961703614226
10,0.01399999856949,-8.717179298401e-07,12.58672401028,-0.0159976221621,-9.626089394384383
11,0.1145000010729,-5.203392356634e-05,12.58677517249,-0.01617889851332,-9.735167002559528
12,0.2150000035763,-7.239210390253e-06,12.58673037778,-0.01406203024089,-8.461405000927636
13,0.3155000060797,-1.11380177259e-05,12.58673427658,-0.01351537462324,-8.1324713762851
14,0.41400000453,0.01036034617573,12.57636279239,0.01572030410171,9.459221567844779
15,0.422499999404,0.02116738259792,12.56555575597,0.05952828750014,35.81936185044525
16,0.4274999946356,0.03185234963894,12.55487078893,0.06396954506636,38.491755405107604
17,0.4315000027418,0.0427547544241,12.54396838414,0.05854504927993,35.22772773708684
18,0.4350000023842,0.05379448831081,12.53292865026,0.06092685088515,36.66090542682209
19,0.4379999935627,0.06436882913113,12.52235430943,0.07218783348799,43.43686401023919
20,0.4409999996424,0.07611046731472,12.51061267125,0.0854477211833,51.41560378926372
21,0.4434999972582,0.08686791360378,12.49985522496,0.0968002602458,58.24665372665769
22,0.445999994874,0.09858666360378,12.48813647496,0.1048416420817,63.08531409895586
23,0.4479999989271,0.1086879819632,12.4780351566,0.1071876809001,64.49697260418773
24,0.4500000029802,0.119384393096,12.46733874547,0.1060659214854,63.82198751606155
25,0.4519999921322,0.130614861846,12.45610827672,0.1033994480968,62.217517117503185
26,0.4539999961853,0.142348870635,12.44437426793,0.09953897446394,59.89459287801132
27,0.4560000002384,0.154540643096,12.43218249547,0.09467905014753,56.9702791615306
28,0.4580000042915,0.1671596616507,12.41956347692,0.08719461411238,52.466744222970185
29,0.4599999934435,0.1800991147757,12.40662402379,0.0781919285655,47.04964817046389
30,0.4619999974966,0.1932979673147,12.39342517125,0.06950967758894,41.82536401135629
31,0.4634999930859,0.2033077329397,12.38341540563,0.06267374008894,37.71204361894702
32,0.4650000035763,0.21339379251,12.37332934606,0.0555631481111,33.43345813092126
33,0.4664999991655,0.2234951108694,12.3632280277,0.04930704459548,29.669035450371137
34,0.4679999947548,0.2335811704397,12.35314196813,0.04418772086501,26.588635915429958
35,0.4695000052452,0.243651971221,12.34307116735,0.03914469107985,23.554143974152552
36,0.4710000008345,0.2536617517471,12.33306138682,0.03452890738845,20.776734557406748
37,0.4730000048876,0.2668606042862,12.31986253428,0.03176325187087,19.112584287039144
38,0.4749999940395,0.2798916101456,12.30683152842,0.0352413021028,21.20539671325303
39,0.4769999980927,0.2927547693253,12.29396836924,0.04490011557937,27.017298071282255
40,0.4790000021458,0.3054958581924,12.28122728037,0.0564815364778,33.986070789667565
41,0.4810000061989,0.3181453943253,12.26857774424,0.06809347122908,40.97320430394647
42,0.4829999953508,0.3307491540909,12.25597398448,0.07814901322126,47.02382514902614
43,0.484999999404,0.3433376550674,12.2433854835,0.08390920609236,50.489848470758695
44,0.4870000034571,0.3558651208878,12.23085801768,0.0849696919322,51.12796402270386
45,0.488999992609,0.3683162927628,12.2184068458,0.08438795059919,50.77791862100477
46,0.4909999966621,0.3805996179581,12.20612352061,0.08387010544538,50.466320829000814
47,0.4930000007153,0.3927150964737,12.19400804209,0.08353918045759,50.267196641479444
48,0.4950000047684,0.4045864343643,12.1821367042,0.08587186783552,51.670821317795635
49,0.4969999939203,0.4161831140518,12.17054002451,0.09176938980818,55.219478308124195
50,0.4989999979734,0.4275203943253,12.15920274424,0.1018401905894,61.27928067192338
51,0.5010000020266,0.4386135339737,12.14810960459,0.1144439503551,68.8632151454731
52,0.5030000060797,0.4494930505753,12.13723008799,0.1287567019463,77.47548420024012
53,0.5049999952316,0.4601894617081,12.12653367686,0.1441070437431,86.71209204564973
54,0.5069999992847,0.4707485437393,12.11597459483,0.1597778201103,96.1415117845062
55,0.5090000033379,0.4812008142471,12.10552232432,0.1752654910088,105.46075329859607
56,0.5109999924898,0.4915767908096,12.09514634776,0.1902953982353,114.50454925061904
57,0.5129999965429,0.5019375085831,12.08478562998,0.2052337527275,123.4932560902888
58,0.515000000596,0.5122829675674,12.074440171,0.2195922732353,132.13306521808735
59,0.5170000046492,0.5226589441299,12.06406419444,0.2330963015556,140.25870929683475
60,0.5189999938011,0.5330501794815,12.05367295908,0.2455474734306,147.7508285830088
61,0.5209999978542,0.5434871912003,12.04323594737,0.2567321658134,154.48088181433167
62,0.5230000019073,0.5539547204971,12.03276841807,0.2662383913994,160.2009679850634
63,0.5250000059605,0.564422249794,12.02230088877,0.2752563357353,165.6272455562772
64,0.5269999951124,0.5749050378799,12.01181810069,0.2845184206963,171.20042742728003
65,0.5289999991655,0.5853878259659,12.0013353126,0.2944976687431,177.2051406786538
66,0.5310000032187,0.5958553552628,11.9908677833,0.30447691679,183.20985393008775
67,0.5329999923706,0.6062771081924,11.98044603037,0.3147460818291,189.38901603745728
68,0.5349999964237,0.616668343544,11.97005479502,0.3266784548759,196.56896368666227
69,0.5370000004768,0.6270138025284,11.95970933604,0.3396026492119,204.34571005359865
70,0.53900000453,0.6373440027237,11.94937913584,0.3530151247978,212.4162650199327
71,0.5409999936819,0.6476131677628,11.9391099708,0.36648863554,220.523546061229
72,0.542999997735,0.6578670740128,11.92885606455,0.3796874880791,228.4655597653454
73,0.5450000017881,0.6680752038956,11.91864793467,0.39285582304,236.38921043195052
74,0.5470000058413,0.6782528162003,11.90847032237,0.4068939089775,244.8362076663624
75,0.5489999949932,0.6883846521378,11.89833848643,0.4218780398369,253.85245906223886
76,0.5509999990463,0.6985164880753,11.88820665049,0.4374267458916,263.2084266512309
77,0.5530000030994,0.7086178064346,11.87810533213,0.4534484744072,272.8490213209251
78,0.5549999922514,0.7187038660049,11.86801927256,0.4697448611259,282.65488332779927
79,0.5569999963045,0.7287899255753,11.85793321299,0.4862548708916,292.58928659701144
80,0.5590000003576,0.7388607263565,11.84786241221,0.5031310915947,302.7440463157568
81,0.5610000044107,0.7489315271378,11.83779161143,0.5197631716728,312.7519017347732
82,0.5629999935627,0.7589870691299,11.82773606944,0.5367919802666,322.9984766408943
83,0.5649999976158,0.7690578699112,11.81766526865,0.5543090701103,333.53886014641296
84,0.5670000016689,0.7791134119034,11.80760972666,0.5722228884697,344.3179631390363
85,0.569000005722,0.7891842126846,11.79753892588,0.5906555056572,355.4092377685684
86,0.570999994874,0.7992244958878,11.78749864268,0.6096374392509,366.8310470724605
87,0.5729999989271,0.8092647790909,11.77745835948,0.6299316287041,379.0424669874707
88,0.5750000029802,0.819305062294,11.76741807627,0.6505309939384,391.43751727705165
89,0.5769999921322,0.8293300867081,11.75739305186,0.6716491580009,404.1447392036018
90,0.5789999961853,0.8393551111221,11.74736802744,0.6931030154228,417.05395454229415
91,0.5810000002384,0.8493801355362,11.73734300303,0.7145873904228,429.98153291843755
92,0.5830000042915,0.8594204187393,11.72730271983,0.7365295290947,443.1845568565878
93,0.5849999934435,0.8694454431534,11.71727769541,0.7587463259697,456.5528481319179
94,0.5869999974966,0.8794857263565,11.70723741221,0.7817870974541,470.4169414188482
95,0.5890000015497,0.8895260095596,11.69719712901,0.8055297732353,484.70338456745384
96,0.5910000056028,0.8995662927628,11.6871568458,0.8300048708916,499.4305406153064
97,0.5929999947548,0.9096065759659,11.6771165626,0.8553039431572,514.653498674699
98,0.5949999988079,0.9196773767471,11.66704576182,0.8808471560478,530.0233610338203
99,0.597000002861,0.9297634363174,11.65695970225,0.9063293337822,545.3564973180396
100,0.598999992013,0.9398647546768,11.64685838389,0.9316284060478,560.579455377432
101,0.6009999960661,0.9499965906143,11.63672654795,0.9573547244072,576.0594959613803
102,0.6030000001192,0.9601284265518,11.62659471201,0.9832946658134,591.6680778075461
103,0.6050000041723,0.9702907800674,11.6164323585,1.009265065193,607.2949868258222
104,0.6069999933243,0.9804531335831,11.60627000498,1.035571217537,623.1239251217619
105,0.6089999973774,0.9906307458878,11.59609239268,1.062274098396,639.191582904385
106,0.6110000014305,1.000823616982,11.58589952158,1.089678883553,655.6815905494057
107,0.6130000054836,1.010985970497,11.57573716807,1.117327809334,672.3185024935534
108,0.6149999946356,1.021163582802,11.56555955576,1.145098805428,689.0288665878666
109,0.6169999986887,1.031310677528,11.55541246104,1.172900319099,705.7575937189688
110,0.6190000027418,1.041473031044,11.54525010752,1.200579762459,722.4128687011092
111,0.6210000067949,1.051604866982,11.53511827158,1.228564381599,739.2517740571586
112,0.6229999959469,1.061736702919,11.52498643565,1.256854176521,756.2743097883204
113,0.625,1.071838021278,11.51488511729,1.285388112068,773.4437498192111
114,0.6270000040531,1.081924080849,11.50479905772,1.313647389412,790.447922512982
115,0.6289999932051,1.09199488163,11.49472825694,1.342425465584,807.7642668436017
116,0.6309999972582,1.102050423622,11.48467271494,1.372302174568,825.7416805227004
117,0.6330000013113,1.112075448036,11.47464769053,1.402300953865,843.7925463519647
118,0.6350000053644,1.122077941895,11.46464519667,1.432318091393,861.8544586962007
119,0.6375000029802,1.134559631348,11.45216350722,1.470251441002,884.6797142663534
120,0.640000000596,1.147041320801,11.43968181777,1.507940649986,907.358065536777
121,0.6424999982119,1.159477233887,11.42724590468,1.545629858971,930.0364168078024
122,0.6449999958277,1.171882629395,11.41484050917,1.584448218346,953.394200464698
123,0.6474999934435,1.184272766113,11.40245037245,1.623358130455,976.8070732337662
124,0.6500000059605,1.196632385254,11.39009075331,1.662542700768,1000.385213340556
125,0.6525000035763,1.208961486816,11.37776165175,1.701788306236,1024.0000795215258
126,0.6550000011921,1.22127532959,11.36544780898,1.74127805233,1047.7618500028261
127,0.6574999988079,1.233573913574,11.35314922499,1.780523657799,1071.3767161843978
128,0.6599999964237,1.24584197998,11.34088115859,1.820257544518,1095.285390965427
129,0.6624999940395,1.258110046387,11.32861309218,1.860601782799,1119.561326495478
130,0.6650000065565,1.270378112793,11.31634502577,1.900396704674,1143.506727351289
131,0.6675000041723,1.282646179199,11.30407695937,1.94049680233,1167.6357585816108
132,0.6700000017881,1.294898986816,11.29182415175,1.982183814049,1192.7196677604713
133,0.672499999404,1.307151794434,11.27957134413,2.023870706558,1217.8035052082894
134,0.6749999970198,1.31941986084,11.26730327773,2.065679788589,1242.9608665367136
135,0.6774999946356,1.331703186035,11.25501995253,2.106817483902,1267.7142410413346
136,0.6799999922514,1.34400177002,11.24272136855,2.147222757339,1292.0269026461672
137,0.6825000047684,1.356285095215,11.23043804335,2.187933206558,1316.5231946261122
138,0.6850000023842,1.368553161621,11.21816997694,2.229620218277,1341.6071038049727
139,0.6875,1.380836486816,11.20588665175,2.270757913589,1366.3604783089918
140,0.6899999976158,1.393104553223,11.19361858534,2.312261819839,1391.3342092629052
141,0.6924999952316,1.405372619629,11.18135051894,2.355169534683,1417.1526399404104
142,0.6949999928474,1.417640686035,11.16908245253,2.397894144058,1442.8608923929685
143,0.6975000053644,1.42992401123,11.15679912734,2.439886331558,1468.1284319463396
144,0.7000000029802,1.442207336426,11.14451580214,2.482000589371,1493.4694236498763
145,0.702500000596,1.454475402832,11.13224773573,2.524603128433,1519.104223952269
146,0.7049999982119,1.466758728027,11.11996441054,2.567693948746,1545.0328328547212
147,0.7074999958277,1.479042053223,11.10768108534,2.611273050308,1571.2552503560294
148,0.7099999934435,1.491355895996,11.09536724257,2.654241800308,1597.1104071083162
149,0.7125000059605,1.503639221191,11.08308391737,2.697454690933,1623.112468160332
150,0.7150000035763,1.515953063965,11.0707700746,2.741949319839,1649.8857767857742
151,0.7175000011921,1.528266906738,11.05845623183,2.786871194839,1676.9161679358922
152,0.7199999988079,1.54061126709,11.04611187148,2.831243753433,1703.6160244117707
153,0.7224999964237,1.552955627441,11.03376751112,2.875433206558,1730.2057026627022
154,0.7249999940395,1.565299987793,11.02142315077,2.920049905777,1757.0524634383096
155,0.7275000065565,1.577659606934,11.00906353163,2.966009378433,1784.707197862125
156,0.7300000041723,1.590019226074,10.99670391249,3.013128519058,1813.0597277098032
157,0.7325000017881,1.602424621582,10.98429851698,3.060430765152,1841.5224357824286
158,0.734999999404,1.614845275879,10.97187786269,3.107855081558,1870.0585960046174
159,0.7374999970198,1.627296447754,10.95942669081,3.155340433121,1898.6314823021899
160,0.7399999946356,1.639762878418,10.94696026015,3.203191995621,1927.4247250490548
161,0.7419999986887,1.649772644043,10.93695049452,3.241277933121,1950.3417958067637
162,0.7440000027418,1.659782409668,10.9269407289,3.278692483902,1972.8548797400676
163,0.7460000067949,1.669792175293,10.91693096327,3.317144632339,1995.9923069470688
164,0.7479999959469,1.679832458496,10.90689068007,3.356085062027,2019.4235427541298
165,0.75,1.68985748291,10.89686565566,3.395269632339,2043.0016828603177
166,0.7520000040531,1.699913024902,10.88681011366,3.434454202652,2066.5798229671077
167,0.7539999932051,1.709953308105,10.87676983046,3.473821878433,2090.2681412982424
168,0.7559999972582,1.719993591309,10.86672954726,3.513677835464,2114.2502682288355
169,0.7580000013113,1.730033874512,10.85668926405,3.553533792496,2138.23239516003
170,0.7600000053644,1.740058898926,10.84666423964,3.593939065933,2162.5450567648627
171,0.7619999945164,1.750068664551,10.83665447402,3.634283304214,2186.8209922949136
172,0.7639999985695,1.760078430176,10.82664470839,3.674505472183,2211.0234756754007
173,0.7664999961853,1.77254486084,10.81417827773,3.725286722183,2241.5795700190124
174,0.7689999938011,1.785011291504,10.80171184706,3.776434183121,2272.356020812518
175,0.7715000063181,1.79744720459,10.78927593398,3.828191995621,2303.4997323550456
176,0.7740000039339,1.809867858887,10.77685527968,3.880438089371,2334.937252497031
177,0.7765000015497,1.822273254395,10.76444988417,3.933233499527,2366.7053073132556
178,0.7789999991655,1.834678649902,10.75204448866,3.985906839371,2398.399909979917
179,0.7814999967813,1.847053527832,10.73966961073,4.038031101227,2429.76412143322
180,0.7839999943972,1.859428405762,10.7272947328,4.090704441071,2461.4587240998812
181,0.786499992013,1.871788024902,10.71493511366,4.143560886383,2493.2635049908877
182,0.78900000453,1.884147644043,10.70257549452,4.196539402008,2525.1417380320595
183,0.7915000021458,1.896507263184,10.69021587538,4.249517917633,2557.0199710732313
184,0.7939999997616,1.908836364746,10.67788677382,4.303411960602,2589.4490952385377
185,0.7964999973774,1.921165466309,10.66555767226,4.357733249664,2622.1353019279177
186,0.7989999949932,1.93350982666,10.65321331191,4.412664890289,2655.1887693669205
187,0.801499992609,1.945854187012,10.64086895155,4.467596530914,2688.2422368059238
188,0.804000005126,1.958229064941,10.62849407362,4.522284030914,2721.148799945198
189,0.8065000027418,1.970603942871,10.61611919569,4.577215671539,2754.202267384201
190,0.8090000003576,1.983009338379,10.60371380019,4.633245944977,2787.916804172285
191,0.8114999979734,1.995429992676,10.59129314589,4.689398288727,2821.704793109933
192,0.8139999955893,2.007881164551,10.57884197402,4.745977878571,2855.7498645722562
193,0.8164999932051,2.020347595215,10.56637554335,4.802801609039,2889.941840333707
194,0.819000005722,2.032829284668,10.5538938539,4.859442234039,2924.0236378708123
195,0.820999994874,2.042839050293,10.54388408827,4.904669284821,2951.237659396043
196,0.8229999989271,2.052848815918,10.53387432265,4.950262546539,2978.6720373699645
197,0.8250000029802,2.062858581543,10.52386455702,4.996160984039,3006.290045718998
198,0.8269999921322,2.072898864746,10.51382427382,5.042059421539,3033.9080540680316
199,0.8289999961853,2.082908630371,10.50381450819,5.088140964508,3061.636240642012
200,0.8310000002384,2.092933654785,10.49378948378,5.134405612946,3089.47460544094
201,0.8330000042915,2.10294342041,10.48377971816,5.180975437164,3117.4966006137774
202,0.8349999934435,2.112953186035,10.47376995253,5.227789402008,3145.6655000869446
203,0.8375000059605,2.125450134277,10.46127300429,5.287176609039,3181.3999709958503
204,0.8400000035763,2.13793182373,10.44879131484,5.347723484039,3217.832237328618
205,0.8425000011921,2.150413513184,10.43630962538,5.408453464508,3254.374681886333
206,0.8449999988079,2.162895202637,10.42382793593,5.468695163727,3290.62331784459
207,0.8474999964237,2.17537689209,10.41134624648,5.528936862946,3326.871953802847
208,0.8499999940395,2.187843322754,10.39887981581,5.589422702789,3363.2674940602315
209,0.8525000065565,2.200294494629,10.38642864394,5.650824069977,3400.2139254423514
210,0.8550000041723,2.212745666504,10.37397747206,5.713201999664,3437.7479740227855
211,0.8575000017881,2.225196838379,10.36152630019,5.775824069977,3475.42892690355
212,0.859999999404,2.237648010254,10.34907512831,5.838812351227,3513.3302362336067
213,0.8624999970198,2.250129699707,10.33659343886,5.902777194977,3551.8191627625793
214,0.8649999946356,2.262626647949,10.32409649062,5.967047214508,3590.491719666062
215,0.8669999986887,2.272636413574,10.31408672499,6.017889499664,3621.084540084456
216,0.8690000027418,2.282661437988,10.30406170058,6.068975925446,3651.8242648031796
217,0.8710000067949,2.29271697998,10.29400615859,6.120855808258,3683.041428495271
218,0.8729999959469,2.302772521973,10.28395061659,6.173223972321,3714.5524007874214
219,0.875,2.312858581543,10.27386455702,6.225347995758,3745.9164687792413
220,0.8770000040531,2.322944641113,10.26377849745,6.277594089508,3777.353988921226
221,0.8789999932051,2.333061218262,10.2536619203,6.330572605133,3809.232221962398
222,0.8809999972582,2.34317779541,10.24354534316,6.384161472321,3841.477715753193
223,0.8830000013113,2.353309631348,10.23341350722,6.437750339508,3873.7232095433865
224,0.8850000053644,2.363452911377,10.22327022719,6.490933895111,3905.7248192425172
225,0.8869999945164,2.373600006104,10.21312313246,6.544095516205,3937.7132305086366
226,0.8889999985695,2.38374710083,10.20297603774,6.597196102142,3969.664915699372
227,0.8910000026226,2.393894195557,10.19282894301,6.650723934174,4001.873683415385
228,0.8930000066757,2.404041290283,10.18268184828,6.705106258392,4034.596616179547
229,0.8949999958277,2.41418838501,10.17253475356,6.759915828705,4067.5766314689863
230,0.8969999998808,2.424304962158,10.16241817641,6.814664363861,4100.519920683042
231,0.8990000039339,2.434421539307,10.15230159926,6.869779109955,4133.683566346993
232,0.9009999930859,2.444522857666,10.1422002809,6.925809383392,4167.398103134475
233,0.902999997139,2.454608917236,10.13211422133,6.982266902924,4201.369722447234
234,0.9050000011921,2.464694976807,10.12202816176,7.038663387299,4235.304615684611
235,0.9070000052452,2.474765777588,10.11195736098,7.095059871674,4269.239508921988
236,0.9089999943972,2.48482131958,10.10190181899,7.151578426361,4303.247854308928
237,0.9109999984503,2.494876861572,10.09184627699,7.208219051361,4337.329651846033
238,0.9130000025034,2.504917144775,10.08180599379,7.26504278183,4371.521627608086
239,0.9150000065565,2.514942169189,10.07178096938,7.322110652924,4405.860507669868
