,time,travel,position,force,stress
0,0.0,0.0,19.53535545096,-0.01037330087274,-7.487356508281374
1,0.0,0.0,19.5353559874,-0.01048082765192,-7.564968383207667
2,0.0,0.0,19.53535484001,-0.01040577050298,-7.510792799224965
3,0.0,0.0,19.53535872921,-0.01003741379827,-7.244916198881936
4,0.0,0.0,19.53535923585,-0.009984723292291,-7.206884659287509
5,0.0,0.0,19.72714264892,-0.008623018860817,-6.224018485594875
6,0.0,0.0,19.72714668739,-0.008472338318825,-6.115258607654771
7,0.007999999999811,3.89851629734e-06,19.72714278887,-0.009001703001559,-6.497349337611182
8,0.01099999999951,9.220093488693e-07,19.72714576538,-0.009218187071383,-6.653605617942886
9,0.01299999999992,1.948326826096e-06,19.72714473906,-0.009231925010681,-6.663521540605803
10,0.01399999999921,-1.052394509315e-07,19.72714679263,-0.009268403053284,-6.689851068018884
11,0.1139999999996,3.355203716637e-06,19.72714333218,-0.008349725976586,-6.026758107194852
12,0.2139999999999,-1.639945003262e-05,19.72716308684,-0.01081955991685,-7.809462325830446
13,0.3139999999994,6.825901891716e-06,19.72713986149,-0.009481517598033,-6.843675255055538
14,0.4049999999997,0.01010147854686,19.71704520884,-0.001052179723047,-0.7594539861405508
15,0.4224999999997,0.02030293270946,19.70684375468,0.01204176899046,8.691641988219551
16,0.4324999999999,0.03058163449168,19.6965650529,0.02575009129941,18.586187371286655
17,0.4399999999996,0.04092709347606,19.68621959391,0.020477226004,14.780279997036276
18,0.4465,0.0510093383491,19.67613734904,0.01611893437803,11.634503780668298
19,0.4529999999995,0.06159130856395,19.66555537882,0.01547919865698,11.172748214783647
20,0.4594999999999,0.07238309085369,19.65476359653,0.0153936361894,11.110989985039897
21,0.4659999999994,0.08308713138103,19.64405955601,0.01384278293699,9.991597871066226
22,0.4724999999999,0.09342877566814,19.63371791172,0.01595642231405,11.517204015160436
23,0.4794999999995,0.1038314551115,19.62331523228,0.008113882504404,5.85652838205326
24,0.4874999999993,0.114207431674,19.61293925571,0.01964380405843,14.178723433232513
25,0.4959999999992,0.1244193762541,19.60272731113,0.03353311866522,24.20390745059801
26,0.5045,0.1348144263029,19.59233226108,0.0449657663703,32.45589110090049
27,0.5124999999998,0.1451865881681,19.58196009922,0.05420114845037,39.12190792351024
28,0.5199999999995,0.1555434912443,19.57160319614,0.05826427787542,42.05463868277934
29,0.5274999999992,0.1661788672209,19.56096782017,0.06076195091009,43.85743691268894
30,0.5349999999999,0.1766578406096,19.55048884678,0.06108071655035,44.087519122826045
31,0.5429999999997,0.187205478549,19.53994120884,0.06301086395979,45.48068239315889
32,0.5514999999996,0.1973796486855,19.5297670387,0.06508961319923,46.9811051455643
33,0.5614999999998,0.2077479958534,19.51939869153,0.06930294632912,50.022251605949066
34,0.5734999999995,0.2179599404335,19.50918674695,0.08007183670998,57.795141110387306
35,0.5864999999994,0.2281566262245,19.49899006116,0.09738293290138,70.2901367076689
36,0.5985000000001,0.2385383248329,19.48860836255,0.1056627333164,76.26642316510545
37,0.6089999999995,0.248620569706,19.47852611768,0.1114028990269,80.40962383173891
38,0.6189999999997,0.2588782906532,19.46826839673,0.1161464750767,83.83349492587949
39,0.6284999999998,0.2689033150673,19.45824337232,0.1218494474888,87.94984979981338
40,0.6379999999999,0.2789970040321,19.44814968336,0.1294597685337,93.44291198943748
41,0.6475,0.2890563607216,19.43809032667,0.1374305784702,99.19617186172759
42,0.6574999999993,0.2994933724403,19.42765331495,0.1449302732944,104.60938502704339
43,0.6674999999996,0.309613764286,19.4175329231,0.1534580290318,110.7646434356034
44,0.6779999999999,0.319852411747,19.40729427564,0.162422567606,117.23516781937619
45,0.6884999999993,0.3299060463905,19.397240641,0.1723312437534,124.38716232438965
46,0.6989999999996,0.340095102787,19.3870515846,0.1807579100132,130.4694552451736
47,0.7094999999999,0.3504520058632,19.37669468152,0.190103918314,137.21532109211333
48,0.7194999999992,0.3605151772499,19.36663151014,0.1991218626499,143.72439328071215
49,0.7294999999995,0.3707767128944,19.35636997449,0.2078460752964,150.02145254273168
50,0.7394999999997,0.3811069130898,19.3460397743,0.2152542173862,155.36858375687584
51,0.7494999999999,0.3912807106972,19.33586597669,0.2239574491978,161.65049923846664
52,0.7594999999992,0.4013057351112,19.32584095228,0.2319416105747,167.41339606194524
53,0.7699999999995,0.4117389321327,19.31540775525,0.2404369413853,173.5452504461079
54,0.7804999999998,0.4220653176308,19.30508136976,0.2501434385777,180.55131397571364
55,0.7909999999993,0.4323268532753,19.29481983411,0.2605403959751,188.05574555354607
56,0.8014999999996,0.442685931921,19.28446075547,0.2716833651066,196.09864178029724
57,0.8114999999998,0.4527414739132,19.27440521347,0.2811838686466,202.95602091976684
58,0.8215,0.4628961980343,19.26425048935,0.2899214327335,209.26271713297484
59,0.8314999999993,0.4730547368526,19.25409195054,0.2978636324406,214.99532639559598
60,0.8414999999995,0.4831827580929,19.24396392929,0.30769982934,222.09500602264671
61,0.8514999999998,0.4932573735714,19.23388931382,0.3175360262394,229.19468564969745
62,0.8615,0.5032594799995,19.22388720739,0.3289591372013,237.4397857634099
63,0.8714999999993,0.5133264660835,19.2138202213,0.3396402895451,245.14934673136165
64,0.8814999999995,0.5235002636909,19.2036464237,0.3492724001408,252.10171867564046
65,0.8914999999997,0.5336740612984,19.19347262609,0.3575369417667,258.06699147450985
66,0.9014999999999,0.5437639355659,19.18338275182,0.3667646944523,264.72750146790105
67,0.9114999999993,0.5537813305855,19.1733653568,0.3768126070499,271.97999560696394
68,0.9219999999996,0.5642450451851,19.1629016422,0.3887087404728,280.5665191350149
69,0.9324999999999,0.5746973156929,19.15244937169,0.4003893435001,288.9974747363254
70,0.9429999999993,0.585096180439,19.14205050695,0.4130465090275,298.13330448334597
71,0.9534999999996,0.5954263806343,19.13172030675,0.4242006838322,306.18428886556404
72,0.9639999999999,0.6057069897652,19.12143969762,0.4346796572208,313.74791885796367
73,0.9744999999994,0.6159761548042,19.11117053258,0.4446817934513,320.9673720215129
74,0.9849999999997,0.6262739300728,19.10087275731,0.4563623964787,329.3983276228956
75,0.9955,0.6366575360298,19.09048915136,0.4675737917423,337.4906132245237
76,1.005999999999,0.6471059918404,19.08004069555,0.4780718386173,345.0680102901322
77,1.0165,0.6575239300728,19.06962275731,0.4892508089542,353.1368918674351
78,1.027,0.6678522229195,19.05929446447,0.500740647316,361.4301552261987
79,1.037499999999,0.6780984997749,19.04904818761,0.5115076303482,369.2016680233016
80,1.048,0.6883848309517,19.03876185644,0.5228735208511,377.4054669175318
81,1.058499999999,0.6987544298172,19.02839225757,0.5354383587837,386.4746554260209
82,1.069,0.7092257738113,19.01792091358,0.5464761853218,394.4416606619824
83,1.0795,0.7197200059891,19.0074266814,0.5586851239204,403.25396418974947
84,1.089999999999,0.7301684617996,18.99697822559,0.5711629986763,412.26038344908306
85,1.1005,0.7406588792801,18.98648780811,0.5826528668404,420.55366831888216
86,1.1105,0.750767827034,18.97637886035,0.5935629010201,428.42843416469077
87,1.1205,0.7609301805496,18.96621650684,0.6052969098091,436.89793757082725
88,1.130499999999,0.7711650133133,18.95598167407,0.6169202923775,445.2875919527276
89,1.1405,0.7814189195633,18.94572776782,0.6274278759956,452.8718725548684
90,1.1505,0.791611790657,18.93553489673,0.6393259167671,461.4597727902114
91,1.1605,0.8016825914383,18.92546409595,0.6521356701851,470.7057391224699
92,1.170499999999,0.8117419481277,18.91540473926,0.6637361645699,479.07887301657735
93,1.180499999999,0.8218203783035,18.90532630908,0.675184071064,487.3418703253747
94,1.1905,0.8319712877274,18.89517539966,0.6879213452339,496.53552177959835
95,1.2005,0.8421679735184,18.88497871387,0.6998079419136,505.1151617710448
96,1.210499999999,0.8522921800613,18.87485450733,0.7106302380562,512.926599080338
97,1.221,0.86277115345,18.86437553394,0.7229097485542,521.7898407787758
98,1.2315,0.873046040535,18.85410064685,0.7360818982124,531.2973815009923
99,1.241999999999,0.883242726326,18.84390396106,0.7483080029488,540.1220753946761
100,1.2525,0.8934813737869,18.8336653136,0.7610681653023,549.3322473366927
101,1.263,0.903937458992,18.8232092284,0.7719400525093,557.1794790361556
102,1.272999999999,0.9139930009842,18.8131536864,0.784444630146,566.2051721978662
103,1.282999999999,0.9240828752518,18.80306381214,0.795186817646,573.9587877998842
104,1.2935,0.9345465898514,18.79260009754,0.8075273633003,582.8660841324604
105,1.303999999999,0.9448158144951,18.78233087289,0.8204983472824,592.2284252549865
106,1.314499999999,0.9549552798271,18.77219140756,0.8347119092941,602.4876481715636
107,1.325,0.9652168154716,18.76192987192,0.8465565443039,611.0370006020806
108,1.335499999999,0.9756729006767,18.75147378671,0.8597859144211,620.5858425437793
109,1.345499999999,0.9858505129814,18.74129617441,0.8726681470871,629.8841237540006
110,1.3555,0.9960815310478,18.73106515634,0.8843983411789,638.3508737455531
111,1.3655,1.006148457527,18.72099822986,0.8955334424973,646.3880910546345
112,1.375999999999,1.016480565071,18.71066612232,0.9077709913254,655.2210451921426
113,1.3865,1.026744008064,18.70040267932,0.9207829236984,664.6129424998088
114,1.397,1.037022709846,18.69012397754,0.9332913160324,673.6413890761755
115,1.407499999999,1.047474980354,18.67967170703,0.9482563734055,684.4430346751899
116,1.4175,1.057614445686,18.6695322417,0.9621304273605,694.4572036895297
117,1.4275,1.06793320179,18.6592134856,0.976900935173,705.1184251423044
118,1.4375,1.078217625618,18.64892906177,0.9893177747726,714.0807897674996
119,1.447499999999,1.088372349739,18.63877433765,1.002245783806,723.412111953451
120,1.4575,1.098408818245,18.62873786914,1.015482783318,732.9664607246066
121,1.4675,1.108410954475,18.61873573291,1.029692530632,743.2229302262386
122,1.478,1.118889927864,18.60825675952,1.045203089714,754.4183141174823
123,1.487999999999,1.128911137581,18.59823554981,1.058390498161,763.9368684980349
124,1.498,1.139039158821,18.58810752857,1.070727229118,772.8414114159548
125,1.508,1.149129033089,18.5780176543,1.082308650017,781.2007782372866
126,1.518,1.159138798714,18.56800788867,1.09548842907,790.7138257889599
127,1.528499999999,1.169587254524,18.55755943286,1.108706355095,800.2544074864735
128,1.539,1.180066227913,18.54708045947,1.122446894646,810.1722069889286
129,1.549,1.190068364143,18.53707832324,1.135325312614,819.4677347839884
130,1.558999999999,1.200119376183,18.52702731121,1.149404168129,829.6297277467495
131,1.569,1.210159659386,18.516987028,1.163804650307,840.0238679804704
132,1.579,1.220180869102,18.50696581829,1.176046013832,848.859575532346
133,1.5895,1.230614066124,18.49653262126,1.190435051918,859.2454555220261
134,1.599999999999,1.240908026695,18.48623866069,1.205846428871,870.3692506327856
135,1.6105,1.251230597496,18.47591608989,1.220193505287,880.7248430614638
136,1.620999999999,1.261625647545,18.46552103984,1.232545495033,889.6403996378642
137,1.6315,1.272020697594,18.45512598979,1.24740755558,900.3677030418827
138,1.642,1.282446265221,18.44470042217,1.262132287025,910.9958835188552
139,1.652499999999,1.292940497398,18.43420618999,1.275306344032,920.5048009485081
140,1.663,1.303427100182,18.42371958721,1.289222359657,930.5492575238496
141,1.673,1.313486456871,18.41366023052,1.302646279335,940.2385236119325
142,1.683,1.323538184166,18.40360850322,1.316135048866,949.9745977483768
143,1.692999999999,1.33356320858,18.39358347881,1.330798745155,960.5587235914273
144,1.7035,1.344061255455,18.38308543193,1.346213936806,971.6852721173483
145,1.7135,1.354078650475,18.37306803691,1.35841524601,980.4920688158029
146,1.723999999999,1.364496588707,18.36265009868,1.373227715492,991.1835778292185
147,1.7345,1.374960303307,18.35218638408,1.386075615883,1000.4570783080392
148,1.745,1.385439276695,18.34170741069,1.399411797523,1010.083015858957
149,1.754999999999,1.395464301109,18.33168238628,1.412072777748,1019.2215990208502
150,1.764999999999,1.405531287193,18.32161540019,1.427289605141,1030.2049699858032
151,1.775,1.415754675865,18.31139201152,1.441606163979,1040.5385350975205
152,1.785,1.42608487606,18.30106181133,1.455728173256,1050.7316760627093
153,1.795,1.436441779137,18.29070490825,1.469739556313,1060.844968004095
154,1.804999999999,1.446717381477,18.28042930591,1.484059095383,1071.180684220821
155,1.815,1.456891179085,18.2702555083,1.497757673264,1081.068196162274
156,1.825,1.466950535774,18.26019615161,1.51079249382,1090.4766139573003
157,1.835499999999,1.477379918098,18.24976676929,1.525460004807,1101.0634932155122
158,1.846,1.487733006477,18.23941368091,1.540776014328,1112.1184529602274
159,1.8565,1.498173832893,18.22897285449,1.556347608566,1123.3578914853927
160,1.866999999999,1.508648991585,18.2184976958,1.570938825607,1133.8897024504806
161,1.8775,1.519108891487,18.2080377959,1.585045576096,1144.0718297579108
162,1.888,1.529576420784,18.1975702666,1.599797010422,1154.7192841374044
163,1.898499999999,1.540063023567,18.18708366382,1.611790418625,1163.3760197384308
164,1.909,1.5504809618,18.17666572559,1.625988721848,1173.624228996744
165,1.9195,1.560876011848,18.16627067554,1.641270399094,1184.6544080100584
166,1.929999999999,1.571324467659,18.15582221973,1.657288312912,1196.215996047041
167,1.9405,1.581795811653,18.14535087573,1.672074079514,1206.8882311586572
168,1.9505,1.591824650764,18.13532203662,1.68693614006,1217.615534561954
169,1.960499999999,1.601826786995,18.12531990039,1.700623273849,1227.4947862593665
170,1.971,1.612202763557,18.11494392383,1.714760541916,1237.6989408837576
171,1.9815,1.622456669807,18.10469001758,1.730358839035,1248.9576533114443
172,1.991999999999,1.632670521736,18.09447616565,1.745201826096,1259.6711896425427
173,2.0025,1.642958760262,18.08418792713,1.761032819748,1271.097860362598
174,2.013,1.65339577198,18.07375091541,1.775475263596,1281.5222881573209
175,2.022999999999,1.663489460945,18.06365722644,1.789044141769,1291.316184000607
176,2.032999999999,1.673674702644,18.05347198474,1.801518201828,1300.3198498455733
177,2.043,1.683848500252,18.04329818714,1.815239667892,1310.2238822743864
178,2.053,1.693896412849,18.03325027454,1.828667402267,1319.9159017769089
179,2.063499999999,1.704322218895,18.02282446849,1.84474670887,1331.521802581252
180,2.074,1.714789748192,18.0123569392,1.861020207405,1343.2678693986848
181,2.084,1.724826216698,18.00232047069,1.875981450081,1354.0667615831874
182,2.094,1.734866499901,17.99228018749,1.891972661018,1365.6090757176487
183,2.103999999999,1.744902968407,17.98224371898,1.907448887825,1376.7796788774915
184,2.114,1.755004286766,17.97214240062,1.921387791634,1386.8406559409148
185,2.124,1.76507127285,17.96207541454,1.93486893177,1396.571223247758
186,2.134499999999,1.775546431541,17.95160025585,1.949929356575,1407.4417042127445
187,2.145,1.785998702049,17.94114798534,1.965191960335,1418.458116153139
188,2.155,1.796038985252,17.93110770214,1.978692173958,1428.202450533624
189,2.165,1.80617082119,17.9209758662,1.992699742317,1438.3129890598486
190,2.174999999999,1.816356062889,17.9107906245,2.007840156555,1449.241205687679
191,2.184999999999,1.826522231102,17.90062445629,2.023213386536,1460.337466652598
192,2.195,1.83663880825,17.89050787914,2.037449836731,1470.6132100567515
193,2.2055,1.847098708153,17.88004797923,2.053624153137,1482.2876880937006
194,2.215999999999,1.85736978054,17.86977690685,2.071034431458,1494.854272471899
195,2.2265,1.867682814598,17.85946387279,2.088059425354,1507.1427619714807
196,2.236999999999,1.878154158592,17.8489925288,2.102456092834,1517.5341487900403
197,2.246999999999,1.888232588768,17.83891409862,2.117230415344,1528.1981236576153
198,2.257,1.898337721825,17.82880896556,2.130368232727,1537.6808836482871
199,2.267,1.908366560936,17.81878012645,2.143155097961,1546.910329492464
200,2.277499999999,1.91871201992,17.80843466747,2.157990455627,1557.6183589939612
201,2.288,1.928998351097,17.79814833629,2.17430973053,1569.3974667875575
202,2.2985,1.93941628933,17.78773039806,2.189358711243,1580.259687508503
203,2.308499999999,1.949573755264,17.77757293212,2.204626321793,1591.2797133054848
204,2.318499999999,1.959869623184,17.7672770642,2.220033884048,1602.4007550010829
205,2.3285,1.970134973526,17.75701171386,2.234041452408,1612.511293528029
206,2.3385,1.980255365372,17.74689132202,2.249292612076,1623.5194452243827
207,2.348999999999,1.990658044815,17.73648864257,2.265779733658,1635.419703261264
208,2.3595,2.000902414322,17.72624427307,2.282747507095,1647.6668915413634
209,2.37,2.011261224747,17.71588546264,2.297506570816,1658.3198527504583
210,2.379999999999,2.021312952042,17.70583373535,2.312170267105,1668.9039785935088
211,2.389999999999,2.031536340714,17.69561034667,2.325784921646,1678.7309154129584
212,2.4,2.041832208633,17.68531447875,2.339487314224,1688.6211807688512
213,2.41,2.052028894424,17.67511779296,2.35449051857,1699.450360514356
214,2.42,2.062088251114,17.66505843627,2.370794534683,1711.21845464875
215,2.430499999999,2.072563409805,17.65458327758,2.38703751564,1722.9424941492216
216,2.4405,2.082569360733,17.64457732665,2.403043985367,1734.4958219428852
217,2.4505,2.092705011368,17.63444167602,2.418115854263,1745.374563151191
218,2.460499999999,2.102897882462,17.62424880493,2.433359384537,1756.377208018665
219,2.470499999999,2.113018274307,17.61412841308,2.448210000992,1767.0962511786427
220,2.4805,2.123089075089,17.6040576123,2.463602304459,1778.2062792164822
221,2.491,2.133545160294,17.59360152709,2.479879617691,1789.9550994483548
222,2.501499999999,2.143886804581,17.58325988281,2.495149850845,1800.9770182176283
223,2.512,2.154262781143,17.57288390624,2.509870767593,1811.6024452801612
224,2.5225,2.164737939835,17.56240874755,2.525453805923,1822.8501440493674
225,2.532499999999,2.174843072891,17.5523036145,2.541143655777,1834.1749384286588
226,2.5425,2.185066461563,17.54208022582,2.555574655533,1844.5911059793405
227,2.5525,2.195278406143,17.53186828124,2.570989847183,1855.71765450454
228,2.5625,2.205367565155,17.52177912223,2.586005210876,1866.555610758796
229,2.572999999999,2.215785503387,17.511361184,2.602026939392,1878.1199522109403
230,2.5835,2.226026058197,17.50112062919,2.617625236511,1889.3786646386268
231,2.594,2.236243724823,17.49090296256,2.634802818298,1901.7772907237352
232,2.604499999999,2.246623516083,17.4805231713,2.652571678162,1914.6026960773077
233,2.6145,2.256732463837,17.47041422355,2.667834281921,1925.6191080169804
234,2.6245,2.266971111298,17.46017557609,2.681311607361,1935.346921910106
235,2.634499999999,2.277080059052,17.45006662834,2.695002555847,1945.228927021958
236,2.645,2.287444591522,17.43970209587,2.709517478943,1955.7056696946431
237,2.6555,2.297544002533,17.42960268485,2.724234580994,1966.3283433427364
238,2.665999999999,2.307590007782,17.41955667961,2.741675376892,1978.9169550371744
239,2.6765,2.317857265472,17.40928942192,2.759623527527,1991.8717708780728
240,2.6865,2.327920436859,17.39922625053,2.775866508484,2003.595810378545
241,2.6965,2.338155269623,17.38899141776,2.792323112488,2015.4740410984655
242,2.706499999999,2.348374843597,17.37877184379,2.806445121765,2025.6671820636543
243,2.7165,2.358399868011,17.36874681938,2.821745872498,2036.7111281506109
244,2.727,2.368651866913,17.35849482047,2.837805747986,2048.3030037485955
245,2.737499999999,2.378804683685,17.3483420037,2.854422569275,2060.2968778829218
246,2.748,2.389115810394,17.33803087699,2.871382713318,2072.5385593341416
247,2.758,2.39919424057,17.32795244682,2.88863658905,2084.992253711652
248,2.768,2.409459590912,17.31768709648,2.903227806091,2095.52406467674
249,2.777999999999,2.419732570648,17.30741411674,2.918051719666,2106.2238339349183
250,2.788,2.429879665375,17.29726702201,2.932902336121,2116.942877094896
251,2.7985,2.440362453461,17.28678423393,2.949324607849,2128.796327082694
252,2.808999999999,2.450754880905,17.27639180648,2.965589046478,2140.535854540382
253,2.8195,2.461180448532,17.26596623886,2.983125209808,2153.1933016008643
