,time,travel,position,force,stress
0,0.0,0.0,24.84472591392,-0.01502925064415,-7.654334499147279
1,0.0,0.0,24.84471989385,-0.01492124702781,-7.599328709027881
2,0.0,0.0,24.84471673481,-0.01342219021171,-6.835865341802559
3,0.0,0.0,24.8447141122,-0.01317304279655,-6.708975605222455
4,0.0,0.0,24.84471369497,-0.01313894893974,-6.691611746533242
5,0.0,0.0,25.32647149056,-0.0171070639044,-8.712556102957437
6,0.0,0.0,25.32647616376,-0.01731877960265,-8.820382022658682
7,0.008000001311302,-2.20499932766e-05,25.32649821375,-0.01710049249232,-8.709209310267433
8,0.01100000739098,-2.8345733881e-05,25.32650450949,-0.01736299134791,-8.842898879621398
9,0.01299999654293,-2.887658774853e-05,25.32650504035,-0.01736230589449,-8.842549781061232
10,0.01399999856949,-2.674199640751e-05,25.32650290576,-0.01729459501803,-8.808064914854212
11,0.1140000075102,-1.876231362985e-05,25.32649492607,-0.01731590367854,-8.818917326536878
12,0.2145000100136,8.780802090769e-06,25.32646738296,-0.01836463063955,-9.353029581892024
13,0.3149999976158,-5.443520421977e-06,25.32648160728,-0.015062677674,-7.671358745654503
14,0.4150000065565,2.064168438665e-05,25.32645552207,-0.01593492180109,-8.1155890317641
15,0.5155000090599,0.009375791065395,25.31710037269,0.01192700397223,6.074373243062641
16,0.5275000035763,0.01978991553187,25.30668624823,0.02959787286818,15.07407287032429
17,0.5349999964237,0.0304519943893,25.29602416937,0.01952587999403,9.944449021660871
18,0.5410000085831,0.04065249487758,25.28582366888,0.005579347256571,2.8415382243503355
19,0.5470000058413,0.05151675269008,25.27495941107,-0.004670744296163,-2.378790536488374
20,0.5525000095367,0.06161044165492,25.2648657221,-0.01103747356683,-5.621339127702808
21,0.5585000067949,0.07244036346674,25.25403580029,-0.01726687513292,-8.793947293295185
22,0.5645000040531,0.08266375213861,25.24381241162,-0.03060687147081,-15.587951638904704
23,0.5715000033379,0.09311983734369,25.23335632642,-0.03226054087281,-16.430158549522684
24,0.5799999982119,0.1032249704003,25.22325119336,-0.04222405329347,-21.504533756900397
25,0.593000009656,0.1135567501187,25.21291941364,-0.006017442326993,-3.064658211556266
26,0.605499997735,0.1237553432584,25.2027208205,0.004560236353427,2.3225093034088524
27,0.6159999966621,0.1340245008469,25.19245166291,0.002874490106478,1.4639657898071112
28,0.6255000084639,0.144179224968,25.18229693879,0.0003083910269197,0.15706226028625925
29,0.6350000053644,0.1546391248703,25.17183703889,-0.002303961431608,-1.1733979217071773
30,0.644500002265,0.1648548841476,25.16162127961,-0.005249086301774,-2.6733377012585224
31,0.6545000076294,0.1749485731125,25.15152759065,-0.003178898012266,-1.6189994631588303
32,0.6650000065565,0.1849964857101,25.14147967805,0.002140697324648,1.09024819482024
33,0.6755000054836,0.1950558423996,25.13142032136,0.005015042144805,2.554139990911669
34,0.6860000044107,0.2053955793381,25.12108058442,0.005814519245178,2.961310334633711
35,0.6960000097752,0.2154549360275,25.11102122773,0.006089438218623,3.101325418068979
36,0.7060000002384,0.2254952192307,25.10098094453,0.006036039907485,3.07412988152379
37,0.7164999991655,0.2359131574631,25.0905630063,0.008886095136404,4.525651090379348
38,0.7269999980927,0.2462357282639,25.0802404355,0.01282381638885,6.531116056282677
39,0.7374999970198,0.2565430402756,25.06993312348,0.01525377854705,7.768685621094773
40,0.7475000023842,0.2665642499924,25.05991191377,0.01790380105376,9.118331001087324
41,0.7575000077486,0.2768677473068,25.04960841645,0.01823635026813,9.28769692520992
42,0.7674999982119,0.2871712446213,25.03930491914,0.01759989187121,8.963551325395004
43,0.7775000035763,0.2972534894943,25.02922267426,0.01877618953586,9.562634806599805
44,0.7880000025034,0.3076294660568,25.0188466977,0.02179504558444,11.1001255669658
45,0.7985000014305,0.3178528547287,25.00862330903,0.02407861873507,12.263139822436834
46,0.8090000003576,0.328017115593,24.99845904817,0.02786041423678,14.189192455588323
47,0.8194999992847,0.3383854627609,24.988090701,0.03110743686557,15.842887501038465
48,0.8295000046492,0.3485630750656,24.97791308869,0.03204820677638,16.322017682214568
49,0.8395000100136,0.3588333427906,24.96764282097,0.03308002650738,16.84751915603345
50,0.8495000004768,0.3690758049488,24.95740035881,0.03588192164898,18.274512633828028
51,0.8595000058413,0.3792534172535,24.94722274651,0.03832952678204,19.521067691951533
52,0.8694999963045,0.3893089592457,24.93716720451,0.04103223979473,20.89754812628242
53,0.8800000101328,0.3997078239918,24.92676833977,0.04361675679684,22.213831826733152
54,0.8905000090599,0.4101257622242,24.91635040153,0.04705761373043,23.96624587298233
55,0.9004999995232,0.4201622307301,24.90631393303,0.04873843491077,24.82228107075726
56,0.9105000048876,0.430213958025,24.89626220573,0.04968537390232,25.3045531389545
57,0.9210000038147,0.4407043755054,24.88577178825,0.05208148062229,26.524880270663083
58,0.9315000027418,0.4511490166187,24.87532714714,0.05539740622044,28.21366731024876
59,0.9420000016689,0.4615974724293,24.86487869133,0.05879153311253,29.942281941791975
60,0.952500000596,0.4720230400562,24.8544531237,0.06249226629734,31.82704987595749
61,0.9625000059605,0.4820633232594,24.8444128405,0.06570519506931,33.463381062713324
62,0.9724999964237,0.4921417534351,24.83433441032,0.06718362867832,34.21634111681615
63,0.9825000017881,0.5021706223488,24.82430554141,0.06929649412632,35.29241465325542
64,0.9930000007153,0.5125027298927,24.81397343387,0.07071830332279,36.01653613086091
65,1.003499999642,0.5226555466652,24.80382061709,0.07475997507572,38.07494265192874
66,1.013999998569,0.5328808426857,24.79359532107,0.08032466471195,40.90901581153912
67,1.024499997497,0.5433292984962,24.78314686526,0.08232535421848,41.92795861011939
68,1.034500002861,0.5533886551857,24.77308750857,0.08374752104282,42.65226222610344
69,1.045000001788,0.5638790726662,24.76259709109,0.08600009977818,43.79949115549939
70,1.055500000715,0.5742207169533,24.75225544681,0.08886207640171,45.25708388077379
71,1.065999999642,0.5843372941017,24.74213886966,0.09196199476719,46.83585934012576
72,1.076499998569,0.5943985581398,24.73207760562,0.09765829145908,49.73695942278914
73,1.086999997497,0.6046543717384,24.72182179202,0.1011372953653,51.5088015626641
74,1.097000002861,0.6147211194038,24.71175504436,0.1053078472614,53.63284620165799
75,1.107000008225,0.6250513195992,24.70142484416,0.1075918972492,54.79610330830552
76,1.116999998689,0.6354921460152,24.69098401774,0.1093201935291,55.67631737574046
77,1.127000004053,0.645757496357,24.6807186674,0.1113629639149,56.71669179014625
78,1.137000009418,0.6557977795601,24.6706783842,0.1158228218555,58.988078787695464
79,1.147500008345,0.6661661267281,24.66031003703,0.1200805008411,61.15649688899699
80,1.158000007272,0.6764963269234,24.64997983684,0.1251359283924,63.73120499854052
81,1.168500006199,0.6868990063667,24.63957715739,0.1295094788074,65.95863593424886
82,1.178499996662,0.6969659924507,24.62951017131,0.1335654556751,68.02432799044355
83,1.188500002027,0.7071970105171,24.61927915324,0.1359765827656,69.2523049340463
84,1.198500007391,0.7174356579781,24.60904050578,0.1368351429701,69.6895660556084
85,1.208499997854,0.7275140881538,24.59896207561,0.1395407170057,71.06750359694226
86,1.218500003219,0.7375162243843,24.58895993937,0.1453428715467,74.02251663944861
87,1.228500008583,0.747579395771,24.57889676799,0.1493530720472,76.06489498326995
88,1.238499999046,0.7576540112495,24.56882215251,0.1524920910597,77.66358423862616
89,1.248500004411,0.7676752209663,24.55880094279,0.1566045731306,79.75805415849985
90,1.259000003338,0.7781351208687,24.54834104289,0.1595590561628,81.26276001083829
91,1.269500002265,0.788537800312,24.53793836345,0.1625440567732,82.78300833812624
92,1.280000001192,0.7989404797554,24.527535684,0.1657813042402,84.4317249345575
93,1.290500000119,0.8093355298042,24.51714063395,0.1694415062666,86.29585051925041
94,1.300999999046,0.819787800312,24.50668836345,0.1732972115278,88.2595450838117
95,1.311000004411,0.8298128247261,24.49666333903,0.1754436939955,89.35273962779424
96,1.321500003338,0.8402879834175,24.48618818034,0.1780562847853,90.68332119090793
97,1.332000002265,0.8506601452827,24.47581601848,0.1819444149733,92.66352963508399
98,1.342500001192,0.8609683513641,24.46550781239,0.1862984597683,94.88102644010092
99,1.353000000119,0.8712985515594,24.4551776122,0.1905346810818,97.03851623874017
100,1.363499999046,0.8816401958466,24.44483596791,0.1953946053982,99.51365536836437
101,1.373999997973,0.8920276165009,24.43444854726,0.2004528939724,102.08982058490575
102,1.384000003338,0.902067899704,24.42440826406,0.2041302621365,103.96268881173867
103,1.394000008702,0.9122302532196,24.41424591054,0.2067099511623,105.27651364404582
104,1.403999999166,0.9223811626434,24.40409500112,0.209114164114,106.50096924567337
105,1.41400000453,0.9324557781219,24.39402038564,0.212730973959,108.34299537384996
106,1.424500003457,0.9429385662079,24.38353759755,0.2169519364834,110.49271393501445
107,1.435000002384,0.9533488750458,24.37312728871,0.221577256918,112.8483702887762
108,1.445500001311,0.9638087749481,24.36266738881,0.2265058457851,115.35847998690947
109,1.455500006676,0.9739634990692,24.35251266469,0.2306934297085,117.4911989661775
110,1.465499997139,0.9842593669891,24.34221679677,0.2322443425655,118.28107239816575
111,1.475500002503,0.9946086406708,24.33186752309,0.2352755963802,119.8248772889679
112,1.485500007868,1.004912137985,24.32156402577,0.2379477918148,121.18581524840528
113,1.495499998331,1.015082120895,24.31139404286,0.2425216138363,123.51524367574702
114,1.505500003695,1.02509188652,24.30138427724,0.2462848126888,125.43182511322901
115,1.516000002623,1.035578489304,24.29089767446,0.2506097257137,127.63448522956614
116,1.526000007987,1.045695066452,24.28078109731,0.252836316824,128.76847877020202
117,1.53599999845,1.055872678757,24.270603485,0.2551971375942,129.97083491526234
118,1.546000003815,1.066015958786,24.26046020497,0.2575303018093,131.15910569247285
119,1.556000009179,1.076071500778,24.25040466298,0.2611199319363,132.9872893039405
120,1.566500008106,1.086474180222,24.24000198354,0.2659321725368,135.4381433164752
121,1.577000007033,1.096695661545,24.22978050221,0.2708006799221,137.91765376719485
122,1.58750000596,1.106878995895,24.21959716786,0.2759953439236,140.56327441852363
123,1.598000004888,1.117271065712,24.20920509805,0.2808530330658,143.0372751832755
124,1.608000010252,1.127402901649,24.19907326211,0.2826114296913,143.9328192308417
125,1.618000000715,1.137549996376,24.18892616738,0.2855525612831,145.43072525042157
126,1.62800000608,1.14761698246,24.1788591813,0.2899261116982,147.65815618618083
127,1.637999996543,1.157630562782,24.16884560098,0.2945323586464,150.0040984930864
128,1.648500010371,1.168067574501,24.15840858926,0.2990279793739,152.29369932844003
129,1.659000009298,1.178405404091,24.14807075967,0.303139269352,154.38756212043612
130,1.669500008225,1.188754677773,24.13772148599,0.3067341446877,156.21841709475865
131,1.680000007153,1.199142098427,24.12733406533,0.3097029328346,157.7304084821883
132,1.69050000608,1.209579110146,24.11689705361,0.3128278851509,159.32193362799825
133,1.701000005007,1.220054268837,24.10642189492,0.3157775998116,160.82421096867358
134,1.711000010371,1.230102181435,24.09637398232,0.3206756711006,163.31877819190828
135,1.721000000834,1.240234017372,24.08624214639,0.3253524899483,165.70066247209004
136,1.731000006199,1.250461220741,24.07601494302,0.3279473781586,167.02222818549842
137,1.740999996662,1.260596871376,24.06587929238,0.3301644325256,168.15136470265531
138,1.75150001049,1.271079659462,24.0553965043,0.336510181427,171.38322807954418
139,1.762000009418,1.281509041786,24.04496712197,0.3402090072632,173.26702460903937
140,1.772500008345,1.291946053505,24.03453011025,0.3438844680786,175.1389214311561
141,1.782499998808,1.301971077919,24.02450508584,0.3501262664795,178.31784325287234
142,1.792500004172,1.312160134315,24.01431602944,0.3538489341736,180.2137823408868
143,1.802500009537,1.322478890419,24.00399727334,0.3559021949768,181.25949948100236
144,1.8125,1.332744240761,23.993731923,0.3586597442627,182.663907799948
145,1.822500005364,1.342902779579,23.98357338418,0.3628754615784,184.8109549982576
146,1.832499995828,1.352916359901,23.97355980386,0.3673224449158,187.07578501424
147,1.843000009656,1.363310933113,23.96316523065,0.3733859658241,190.16391085455044
148,1.853500008583,1.373675465584,23.95280069818,0.3789516091347,192.9984697165291
149,1.86400000751,1.384173512459,23.9423026513,0.3836532235146,195.39298225756278
150,1.873999997973,1.394213795662,23.9322623681,0.3859114050865,196.54306468817688
151,1.884499996901,1.404681324959,23.9217948388,0.3874196112156,197.3111877622497
152,1.894999995828,1.415034413338,23.91144175042,0.3910478651524,199.1590423185196
153,1.905500009656,1.425311207771,23.90116495599,0.3957418501377,201.54966924079045
154,1.916000008583,1.435645222664,23.8908309411,0.3999466001987,203.69113086214756
155,1.92650000751,1.446108937263,23.8803672265,0.4040988981724,205.80587885480298
156,1.936499997973,1.456259846687,23.87021631707,0.4082960188389,207.94345485744816
157,1.946500003338,1.46650993824,23.85996622552,0.4105109274387,209.0714985443439
158,1.956500008702,1.476645588875,23.84983057488,0.4130047857761,210.34161016600197
159,1.967000007629,1.487025380135,23.83945078362,0.4175099432468,212.6360680247837
160,1.977500006557,1.497294545174,23.82918161859,0.4241971075535,216.04181283975646
161,1.988000005484,1.507681965828,23.81879419793,0.4282301962376,218.09584803976446
162,1.998500004411,1.518180012703,23.80829615106,0.4317225515842,219.8744900123878
163,2.008500009775,1.528281331062,23.7981948327,0.4358099997044,221.95621024586464
164,2.018500000238,1.538474202156,23.7880019616,0.4383620321751,223.25594971032203
165,2.028500005603,1.548651814461,23.7778243493,0.4408535063267,224.52484707612305
166,2.038499996066,1.55871117115,23.76776499261,0.4459365904331,227.11364055351638
167,2.048500001431,1.568793416023,23.75768274774,0.4499897062778,229.17787550266223
168,2.058500006795,1.578864216805,23.74761194695,0.4534849226475,230.95797458238533
169,2.068499997258,1.58887398243,23.73760218133,0.4579004347324,233.2067764210856
170,2.078999996185,1.599326252937,23.72714991082,0.4617551863194,235.1699852833652
171,2.089500010014,1.609767079353,23.71670908441,0.4642509520054,236.44106830968855
172,2.100000008941,1.620166540146,23.70630962361,0.4686797559261,238.6966396247739
173,2.109999999404,1.630210638046,23.69626552571,0.4719937741756,240.38445525966884
174,2.120000004768,1.640392065048,23.68608409871,0.4749768674374,241.90373218229152
175,2.130000010133,1.650592565536,23.67588359822,0.478508323431,243.70228795090898
176,2.140000000596,1.660754919052,23.66572124471,0.4814647138119,245.20796520796355
177,2.15000000596,1.670833349228,23.65564281453,0.4852698743343,247.1459175484375
178,2.160500004888,1.681281805038,23.64519435872,0.4893759191036,249.23710897752778
179,2.171000003815,1.691707372665,23.63476879109,0.4931028783321,251.1352337260645
180,2.181500002742,1.70217871666,23.6242974471,0.4977434575558,253.498661317301
181,2.191500008106,1.71222281456,23.6142533492,0.5035360455513,256.44880215819256
182,2.201499998569,1.722354650497,23.60412151326,0.5061503052711,257.7802337003756
183,2.211500003934,1.732497930527,23.59397823323,0.5089421868324,259.20212730360123
184,2.221500009298,1.742519140244,23.58395702352,0.5133166909218,261.4300439416931
185,2.232000008225,1.752902746201,23.57357341756,0.5172000527382,263.40782387415516
186,2.242500007153,1.763177633286,23.56329853047,0.5207219719887,265.2015226193954
187,2.25300000608,1.773471593857,23.5530045699,0.5264621376991,268.12496500972105
188,2.263500005007,1.783931493759,23.54254467,0.5316100716591,270.74678624634385
189,2.273500010371,1.794051885605,23.53242427815,0.5354591012001,272.70708089452586
190,2.283500000834,1.804275274277,23.52220088948,0.5377455353737,273.87155225703043
191,2.293500006199,1.814479589462,23.5119965743,0.5407400727272,275.39665760769554
192,2.303499996662,1.824516057968,23.50196010579,0.5435915589333,276.8489076072449
193,2.31400001049,1.834880590439,23.49159557332,0.5480089783669,279.0986808506613
194,2.324500009418,1.845182180405,23.48129398335,0.553350508213,281.81909966243643
195,2.335000008345,1.855546712875,23.47092945088,0.5585976243019,284.4914339425178
196,2.344999998808,1.865561842918,23.46091432084,0.5624843239784,286.4709138331695
197,2.355000004172,1.875655531883,23.45082063188,0.5670400261879,288.79111391603857
198,2.365000009537,1.885775923729,23.44070024003,0.5694561600685,290.02164079690033
199,2.375,1.895781874657,23.4306942891,0.573128759861,291.89208051201916
200,2.385499998927,1.906195998192,23.42028016557,0.5787277817726,294.7436389558943
201,2.395999997854,1.916598677635,23.40987748612,0.5829163193703,296.87684363749497
202,2.406499996781,1.927066206932,23.39940995683,0.5866747498512,298.7909965632629
203,2.416500002146,1.937106490135,23.38936967362,0.5903869271278,300.6815929255167
204,2.42650000751,1.947211623192,23.37926454057,0.5921298861504,301.56927466648756
205,2.436499997973,1.95728623867,23.36918992509,0.595426261425,303.24810480805075
206,2.446500003338,1.967296004295,23.35918015946,0.5998131632805,305.4823355765687
207,2.457000002265,1.977733016014,23.34874314775,0.6031023859978,307.1575229506117
208,2.467500001192,1.988067030907,23.33840913285,0.608308494091,309.80897202998284
209,2.478000000119,1.998368620872,23.32810754289,0.6123988032341,311.89214937045756
210,2.488499999046,2.008666276932,23.31780988683,0.6168858408928,314.17737888476665
211,2.498999997973,2.019040346146,23.30743581761,0.6217686533928,316.6641748705775
212,2.509499996901,2.029538393021,23.29693777074,0.6255661845207,318.59824159233955
213,2.519500002265,2.039582490921,23.28689367284,0.6280285716057,319.8523250367664
214,2.530000001192,2.050069093704,23.27640707005,0.6336171030998,322.6985407548808
215,2.540500000119,2.060452699661,23.2660234641,0.6374923586845,324.67219221743915
216,2.550999999046,2.070695161819,23.25578100194,0.6420328021049,326.98462106283347
217,2.561499997973,2.081050157547,23.24542600621,0.6467429995537,329.38350492496255
218,2.571500003338,2.091117143631,23.23535902013,0.6509343981743,331.51816671356113
219,2.581500008702,2.101397752762,23.225078411,0.6521641612053,332.14447988225015
220,2.591499999166,2.111762285233,23.21471387853,0.655120074749,333.649914288113
221,2.60150000453,2.122027397156,23.2044487666,0.6574741005898,334.848809804047
222,2.612000003457,2.132513999939,23.19396216382,0.6623511910439,337.33269157581117
223,2.622500002384,2.142750740051,23.18372542371,0.6678548455238,340.1356797855582
224,2.633000001311,2.152949333191,23.17352683057,0.6738248467445,343.17617644008317
225,2.643500000238,2.163363456726,23.16311270703,0.6783395409584,345.47549132229295
226,2.653500005603,2.173510551453,23.15296561231,0.6814375519753,347.05329537698987
227,2.663499996066,2.183707237244,23.14276892652,0.6847119927406,348.720954364699
228,2.673500001431,2.193835258484,23.13264090528,0.6884093880653,350.6040223406698
229,2.684000000358,2.204237937927,23.12223822583,0.6937995553017,353.3492119719179
230,2.694499999285,2.214489936829,23.11198622693,0.699018061161,356.00697518171506
231,2.704999998212,2.224684715271,23.10179144849,0.7046733498573,358.88719006372423
232,2.715499997139,2.23495388031,23.09152228345,0.7081008553505,360.63280427722
233,2.725999996066,2.245310783386,23.08116538037,0.7127972245216,363.0246454553478
234,2.736500009894,2.255763053894,23.07071310987,0.7156878113747,364.49680925089115
235,2.747000008821,2.266230583191,23.06024558057,0.7188947796822,366.1301047980197
236,2.757500007749,2.276671409607,23.04980475415,0.7224801182747,367.9561027489142
237,2.768000006676,2.287119865417,23.03935629834,0.7267697453499,370.1407918786387
238,2.778500005603,2.297575950623,23.02890021314,0.7286296486855,371.08803286914696
