,time,travel,position,force,stress
0,0.0,0.0,24.11819276397,-0.005285938736051,-2.9211224955675075
1,0.0,0.0,24.11819520776,-0.005406578537077,-2.987790622883169
2,0.0,0.0,24.11819139306,-0.004971960093826,-2.7476112006529574
3,0.0,0.0,24.11819136326,-0.004228928592056,-2.336996143779034
4,0.0,0.0,24.11819350903,-0.004192212130874,-2.3167058441611275
5,0.0,0.0,24.37011131048,-0.006030798889697,-3.332748104473582
6,0.0,0.0,24.37011748741,-0.00602984521538,-3.332221083703963
7,0.008000001311302,-1.425389200449e-05,24.3701317413,-0.006882549263537,-3.803443529046519
8,0.01100000739098,4.693283699453e-06,24.37011279412,-0.006919861771166,-3.8240632166448156
9,0.01300001144409,2.176850102842e-06,24.37011531056,-0.006925248540938,-3.827040060521593
10,0.01400001347065,-1.926557160914e-06,24.37011941396,-0.006905996240675,-3.816400828741225
11,0.1145000010729,6.563374881807e-06,24.37011092403,-0.003698183223605,-2.043694932278666
12,0.2145000100136,3.192995427526e-05,24.37008555745,-0.004944417625666,-2.7323906452619324
13,0.315000012517,2.707799467316e-05,24.37009040941,-0.00517159467563,-2.85793352879945
14,0.4155000001192,3.472671232885e-05,24.3700827607,-0.003342790296301,-1.8472972200552973
15,0.5155000090599,0.0008921343833208,24.36922535302,-0.004924453329295,-2.7213579492452786
16,0.5695000141859,0.01094139181077,24.3591760956,0.004910571034998,2.7136862973049176
17,0.5875000059605,0.02103698812425,24.34908049928,0.01896105520427,10.478283548603743
18,0.5980000048876,0.0313900783658,24.33872740904,0.03189263865352,17.624552395664438
19,0.6060000061989,0.04207886010408,24.3280386273,0.02697263471782,14.90565327622612
20,0.6130000054836,0.05270279198885,24.31741469542,0.02465377561748,13.624202275695787
21,0.6195000112057,0.0632504299283,24.30686705748,0.02289448492229,12.651980711546255
22,0.6255000084639,0.07326401025057,24.29685347716,0.02235056273639,12.351397709659677
23,0.631500005722,0.08330810815096,24.28680937926,0.01837183348835,10.152667060180978
24,0.6380000114441,0.09385574609041,24.27626174132,0.01918341033161,10.60116173484676
25,0.6450000107288,0.1045674160123,24.2655500714,0.0127742420882,7.059318654824879
26,0.6525000035763,0.1147679165006,24.25534957091,0.02343125455081,12.948611057659303
27,0.6605000048876,0.1249531581998,24.24516432921,0.03921265527606,21.669749718553607
28,0.6685000061989,0.1353253126144,24.23479217479,0.04754204675555,26.272749117540933
29,0.6760000139475,0.1454762220383,24.22464126537,0.05203289911151,28.754489920134397
30,0.6835000067949,0.1560543775558,24.21406310985,0.06044049188495,33.40070502220618
31,0.6905000060797,0.1664494276047,24.2036680598,0.06036336347461,33.358082217489404
32,0.6975000053644,0.1769818067551,24.19313568065,0.05649049207568,31.217850873395886
33,0.7045000046492,0.1871670484543,24.18295043895,0.05359513685107,29.61781581782774
34,0.7120000123978,0.1972111463547,24.17290634105,0.05168345198035,28.561377981685105
35,0.7210000008345,0.2076977491379,24.16241973827,0.05503800138831,30.415173537667133
36,0.7315000146627,0.2178467512131,24.15227073619,0.05914070829749,32.68241688715765
37,0.7445000112057,0.2278698682785,24.14224761913,0.07588055729866,41.93321450919978
38,0.7575000077486,0.2379711866379,24.13214630077,0.09034779667854,49.92811957934432
39,0.7685000002384,0.2480992078781,24.12201827953,0.09307715296745,51.43642008225744
40,0.7785000056028,0.2584561109543,24.11166137645,0.09286332130432,51.3182521441439
41,0.7880000025034,0.2687329053879,24.10138458202,0.09111022949219,50.349456214996614
42,0.7975000143051,0.2788532972336,24.09126419017,0.09131935238838,50.465021988060265
43,0.8075000047684,0.2888777852058,24.0812397022,0.09441155940294,52.173841541638936
44,0.8185000121593,0.2992842793465,24.07083320806,0.1002060845494,55.37601973583823
45,0.8295000046492,0.3093550801277,24.06076240728,0.106446929276,58.82484365009996
46,0.8405000120401,0.3194754719734,24.05064201543,0.1112639382482,61.486825555807044
47,0.85150000453,0.3298743367195,24.04024315069,0.1153423264623,63.7406298756742
48,0.8620000034571,0.3401301503181,24.02998733709,0.1192218735814,65.88455036512798
49,0.8725000023842,0.3506358265877,24.01948166082,0.1249658539891,69.05879645856011
50,0.8825000077486,0.3610652089119,24.0090522785,0.1309062838554,72.34160471311696
51,0.8920000046492,0.3713763356209,23.99874115179,0.1336936354637,73.88195466657561
52,0.9015000015497,0.3818553090096,23.9882621784,0.1353893876076,74.81906347199353
53,0.9110000133514,0.3922389149666,23.97787857244,0.137292444706,75.8707334171202
54,0.920500010252,0.4023860096931,23.96773147771,0.1395784020424,77.13400220109673
55,0.9305000007153,0.4125636219978,23.95755386541,0.1426592469215,78.83654279626381
56,0.9410000145435,0.4227297902107,23.9473876972,0.1503439545631,83.0832761552107
57,0.9515000134706,0.4327319264412,23.93738556097,0.1566668152809,86.57742385562543
58,0.9620000123978,0.4428866505623,23.92723083685,0.1617832779884,89.40489028286142
59,0.9725000113249,0.4532645344734,23.91685295293,0.1664524674416,91.98518396935212
60,0.9825000017881,0.4634039998055,23.9067134876,0.1683811098337,93.05099289351632
61,0.9925000071526,0.4736540913582,23.89646339605,0.1691783219576,93.49154931786173
62,1.002500012517,0.4838431477547,23.88627433965,0.1720684319735,95.08868575921548
63,1.01250000298,0.4939368367195,23.87618065069,0.1754120141268,96.93642057633888
64,1.023000001907,0.5043852925301,23.86573219488,0.1795995980501,99.25056877427411
65,1.033500000834,0.5147269368172,23.85539055059,0.1848820000887,102.1697368153918
66,1.044000014663,0.5250342488289,23.84508323858,0.1896055489779,104.78007068571267
67,1.05450001359,0.5353769659996,23.83474052141,0.1948119699955,107.65724999393689
68,1.065000012517,0.5458139777184,23.82430350969,0.1972204744816,108.98824094679043
69,1.07500000298,0.5558580756187,23.81425941179,0.200729995966,110.92767737779553
70,1.085000008345,0.5659403204918,23.80417716692,0.2045828402042,113.0568412856867
71,1.095000013709,0.5760187506676,23.79409873674,0.2092091143131,115.6134190375252
72,1.105000004172,0.5860933661461,23.78402412126,0.2121321260929,117.22873769541064
73,1.115000009537,0.5961183905602,23.77399909685,0.2166973650455,119.75158611798689
74,1.125500008464,0.6065210700035,23.7635964174,0.220927387476,122.08918674022185
75,1.136000007391,0.6168856024742,23.75323188493,0.2259017527103,124.83812707280282
76,1.146500006318,0.6272844672203,23.74283302019,0.2307845652103,127.53647341157328
77,1.156500011683,0.637332379818,23.73278510759,0.2354833185673,130.1331047419073
78,1.166500002146,0.647544324398,23.72257316301,0.2385798990726,131.8443411797562
79,1.17650000751,0.6577867865562,23.71233070085,0.2410580217838,133.2138046487693
80,1.186500012875,0.6679033637047,23.7022141237,0.2436002790928,134.6187102645292
81,1.197000011802,0.6783556342125,23.6917618532,0.2466825544834,136.32204139086426
82,1.207500010729,0.6886152625084,23.6815022249,0.2525018751621,139.53792212507253
83,1.218000009656,0.698892056942,23.67122543047,0.2598470747471,143.5970360901742
84,1.228000000119,0.7089475989342,23.66116988847,0.2641681730747,145.98496719581192
85,1.238000005484,0.7192472815514,23.65087020586,0.2679056227207,148.05036159066594
86,1.248000010848,0.729596555233,23.64052093217,0.2716278135777,150.10732365324583
87,1.258000001311,0.7398847937584,23.63023269365,0.2746166288853,151.75900674419466
88,1.268000006676,0.7499632239342,23.62015426347,0.2780405580997,153.65114306109922
89,1.278500005603,0.760358273983,23.60975921342,0.2839743196964,156.93026628763974
90,1.28900000453,0.77074187994,23.59937560747,0.2899605333805,160.23837565648992
91,1.299000009894,0.7807554602623,23.58936202715,0.2928997576237,161.862653667465
92,1.309000000358,0.7908376455307,23.57927984188,0.2973404228687,164.31666000204183
93,1.319000005722,0.8009160757065,23.5692014117,0.3008132278919,166.23580613341906
94,1.329500004649,0.8113721609116,23.5587453265,0.3048410713673,168.4616783525522
95,1.340000003576,0.8217786550522,23.54833883236,0.3101578056812,171.3998191413143
96,1.350000008941,0.831799864769,23.53831762264,0.3145723640919,173.8393982823935
97,1.360000014305,0.8419317007065,23.5281857867,0.3169312775135,175.142984155218
98,1.370000004768,0.8520559072495,23.51806158016,0.3206754028797,177.21206769544884
99,1.380000010133,0.8621343374252,23.50798314998,0.3242903053761,179.2097399214811
100,1.39050000906,0.8725675344467,23.49754995296,0.3273946344852,180.92525840306905
101,1.401000007987,0.8827146291733,23.48740285823,0.3334886133671,184.29292111887463
102,1.411500006914,0.8927892446518,23.47732824276,0.3385631144047,187.0971986322739
103,1.422000005841,0.9030050039291,23.46711248348,0.3437415659428,189.95892140953237
104,1.432500004768,0.913457274437,23.45666021297,0.3464414179325,191.45091720737003
105,1.442500010133,0.9235776662827,23.44653982112,0.3493248522282,193.04436450334694
106,1.452500000596,0.9338124990463,23.43630498836,0.3538042604923,195.51978105667405
107,1.46250000596,0.9439557790756,23.42616170833,0.3604437410831,199.1888996524675
108,1.472500011325,0.953999876976,23.41611761043,0.3643461763859,201.345468640443
109,1.483000010252,0.9644559621811,23.40566152523,0.3682486116886,203.5020376283632
110,1.493500009179,0.9748853445053,23.3952321429,0.3734718859196,206.38853038179434
111,1.504000008106,0.985307097435,23.38481038997,0.3773562014103,208.5350859751045
112,1.514500007033,0.9957898855209,23.37432760189,0.3810164034367,210.5577916876619
113,1.52500000596,1.006261229515,23.36385625789,0.3845745623112,212.52410617788055
114,1.535500004888,1.016698241234,23.35341924617,0.3897387087345,215.3779236435699
115,1.546000003815,1.02713906765,23.34297841976,0.3938318789005,217.63989678535864
116,1.556000009179,1.037181735039,23.33293575237,0.3977425098419,219.80099485803896
117,1.566000014544,1.047305941582,23.32281154583,0.4041950702667,223.36681738305998
118,1.576000005007,1.057540774345,23.31257671306,0.4093306064606,226.20482422572152
119,1.586000010371,1.067783236504,23.3023342509,0.4135954380035,228.5616611059534
120,1.596000000834,1.07788836956,23.29222911785,0.4185183048248,231.28214231704013
121,1.606500014663,1.088283419609,23.2818340678,0.4226973056793,233.59154732807804
122,1.61700001359,1.098617434502,23.27150005291,0.4257395267487,235.27274358215212
123,1.627500012517,1.108966708183,23.26115077922,0.4305794239044,237.94737398627038
124,1.638000011444,1.119422793388,23.25069469402,0.4356853961945,240.7690431850886
125,1.648000001907,1.129470705986,23.24064678142,0.4397928714752,243.03892163839134
126,1.658000007272,1.139556765556,23.23056072185,0.4449455738068,245.88641485490268
127,1.668500006199,1.150050997734,23.22006648967,0.4500877857208,248.7281108428858
128,1.679000005126,1.160390734673,23.20972675274,0.4568703174591,252.47628255409452
129,1.689500004053,1.170717120171,23.19940036724,0.4636414051056,256.21813001607
130,1.70000000298,1.181127429008,23.1889900584,0.4684336185455,258.8664093817349
131,1.710500001907,1.191625475883,23.17849201152,0.4711244106293,260.3533984823228
132,1.721000000834,1.202112078667,23.16800540874,0.4728012084961,261.28003274991715
133,1.731500014663,1.212522387505,23.1575950999,0.47642993927,263.28534677705557
134,1.74200001359,1.222860217094,23.14725727031,0.4806795120239,265.6337513250133
135,1.752500012517,1.233270525932,23.13684696148,0.4857969284058,268.46174477306477
136,1.76250000298,1.243310809135,23.12680667827,0.4915266036987,271.62808555492774
137,1.772500008345,1.253442645073,23.11667484233,0.4966259002686,274.44606560836917
138,1.782500013709,1.263536334038,23.10658115337,0.5003342628479,276.4953858697324
139,1.793000012636,1.274015307426,23.09610217998,0.5056176185608,279.4150809316103
140,1.803500011563,1.284294247627,23.08582323978,0.5107614994049,282.25769920596525
141,1.81400001049,1.294464230537,23.07565325687,0.5159156322479,285.1059829535894
142,1.824500009418,1.304685711861,23.06543177555,0.5210349559784,287.9350304431613
143,1.835000008345,1.315054059029,23.05506342838,0.5249569416046,290.10240335685955
144,1.845000013709,1.325121045113,23.0449964423,0.5285346508026,292.0795217728562
145,1.855000004172,1.335313916206,23.0348035712,0.5315520763397,293.7470154868881
146,1.865000009537,1.345434308052,23.02468317936,0.5354568958282,295.90490202673647
147,1.875500008464,1.355932354927,23.01418513248,0.5408337116241,298.8762451240006
148,1.886000007391,1.366296887398,23.00382060001,0.5473692417145,302.4879184559901
149,1.896500006318,1.376583218575,22.99353426883,0.5520956516266,305.09983338859166
150,1.907000005245,1.386947751045,22.98316973636,0.5583221912384,308.54075199128425
151,1.91700001061,1.397018551826,22.97309893558,0.5624887943268,310.84330573232876
152,1.927000001073,1.407154202461,22.96296328495,0.5669176578522,313.2907901849219
153,1.937000006437,1.417221188545,22.95289629886,0.5698177814484,314.89346034434084
154,1.947500005364,1.427604794502,22.94251269291,0.5757238864899,318.1572999685585
155,1.958000004292,1.437938809395,22.93217867801,0.5807249546051,320.92099688270207
156,1.968500003219,1.448375821114,22.92174166629,0.5853197574615,323.4601829491216
157,1.978500008583,1.458477139473,22.91164034793,0.5908920764923,326.5395653041107
158,1.988500013947,1.468696713448,22.90142077396,0.5967743396759,329.7902294091017
159,1.998500004411,1.478923916817,22.89119357059,0.6002762317657,331.72544967391445
160,2.008500009775,1.488929867744,22.88118761966,0.6042444705963,333.91838309495336
161,2.019000008702,1.49921810627,22.87089938114,0.6094038486481,336.7695654568416
162,2.029500007629,1.509538769722,22.86057871769,0.6131126880646,338.81914922861245
163,2.040000006557,1.51999104023,22.85012644718,0.6169855594635,340.95938057268944
164,2.050000011921,1.530016064644,22.84010142276,0.6222956180573,343.89383221612997
165,2.060000002384,1.540038704872,22.83007878254,0.6277298927307,346.89692831470876
166,2.070500001311,1.55053293705,22.81958455036,0.633852481842,350.2804016535422
167,2.081000000238,1.561000466347,22.80911702106,0.639301776886,353.29179832930174
168,2.091000005603,1.57104074955,22.79907673786,0.6438565254211,355.80884952340494
169,2.101000010967,1.581164956093,22.78895253131,0.646782875061,357.42601275397885
170,2.111000001431,1.591315865517,22.77880162189,0.6503486633301,359.3965434103898
171,2.121000006795,1.601375222206,22.7687422652,0.6532402038574,360.99447038285626
172,2.131500005722,1.611758828163,22.75835865924,0.6592626571655,364.32260654092664
173,2.142000004649,1.622031807899,22.74808567951,0.6666650772095,368.4133417521944
174,2.152500003576,1.632373452187,22.73774403522,0.6734676361084,372.1725808995336
175,2.162500008941,1.642402291298,22.72771519611,0.6774501800537,374.3734196320864
176,2.172500014305,1.652526497841,22.71759098957,0.681667804718,376.70416898427266
177,2.182500004768,1.662620186806,22.7074973006,0.6852259635925,378.6704834744913
178,2.193000003695,1.673053383827,22.69706410358,0.6898198127747,381.20914252020583
179,2.203500002623,1.683318734169,22.68679875324,0.6960253715515,384.6384666659524
180,2.21400000155,1.693526864052,22.67659062336,0.7044367790222,389.28678985109826
181,2.224500000477,1.703956246376,22.66616124103,0.7094340324402,392.0483786822009
182,2.234500005841,1.714187264442,22.65593022297,0.7119064331055,393.41468002659735
183,2.244500011206,1.724509835243,22.64560765216,0.7137860059738,394.45337208524796
184,2.254500001669,1.734687447548,22.63543003986,0.7168091535568,396.12402792389645
185,2.265000000596,1.745078682899,22.62503880451,0.7213505506516,398.6337008273013
186,2.275500014424,1.755134224892,22.61498326252,0.7283467054367,402.4999251907898
187,2.286500006914,1.765603661537,22.60451382587,0.7363919019699,406.94587240052783
188,2.297000005841,1.775882363319,22.59423512409,0.7420920133591,410.0958755386028
189,2.307000011206,1.786070585251,22.58404690216,0.7467919588089,412.69316564484564
190,2.317000001669,1.796572446823,22.57354504058,0.7483052015305,413.5294158505417
191,2.327000007033,1.807085752487,22.56303173492,0.7531455755234,416.2043097650677
192,2.337000012398,1.817408323288,22.55270916412,0.7596915960312,419.82178032547495
193,2.347000002861,1.827536344528,22.54258114288,0.7669147253036,423.8134356320521
194,2.357000008225,1.837553739548,22.53256374786,0.7722209692001,426.74577919239647
195,2.367500007153,1.847964048386,22.52215343902,0.7776769399643,429.7608650135329
196,2.37800000608,1.858366727829,22.51175075958,0.7826904058456,432.53141319766996
197,2.388000011444,1.868372678757,22.50174480865,0.788231253624,435.5934038672953
198,2.398000001907,1.878493070602,22.49162441681,0.7931979894638,438.3381280337392
199,2.408000007272,1.888590574265,22.48152691314,0.7992776632309,441.69788543797563
200,2.418000012636,1.898684263229,22.47143322418,0.8035711050034,444.0705329413458
201,2.428000003099,1.908739805222,22.46137768219,0.8076881170273,446.34568160236125
202,2.438500002027,1.919119596481,22.45099789093,0.8106101751328,447.9604732394865
203,2.449000000954,1.929335355759,22.44078213165,0.8161205053329,451.00559924439784
204,2.459500014782,1.939612150192,22.43050533722,0.8207391500473,453.55796083009926
205,2.470000013709,1.950037717819,22.42007976959,0.8276056051254,457.3525103689814
206,2.480000004172,1.960097074509,22.4100204129,0.8338512182236,460.8039693870995
207,2.490000009537,1.970141172409,22.399976315,0.8403171300888,464.37717020287425
208,2.500500008464,1.98058962822,22.38952785919,0.8449500799179,466.9374371000896
209,2.511000007391,1.990950345993,22.37916714141,0.8509763479233,470.2676813412561
210,2.521500006318,2.001330137253,22.36878735015,0.8550752401352,472.53281660766146
211,2.532000005245,2.011812925339,22.35830456207,0.8586982488632,474.53496851018326
212,2.54200001061,2.021906614304,22.3482108731,0.8638223409653,477.36665110361156
213,2.552000001073,2.032068967819,22.33804851959,0.8692544698715,480.3685614054661
214,2.562000006437,2.042171955109,22.3279455323,0.8746361136436,483.34257254536
215,2.572500005364,2.052654743195,22.31746274421,0.881901204586,487.3574167658291
216,2.583000004292,2.063122272491,22.30699521492,0.8876947760582,490.5590679392903
217,2.593500003219,2.073612689972,22.29650479744,0.8919824957848,492.92855331804384
218,2.603500008583,2.083656787872,22.28646069954,0.8969959616661,495.69910150218084
219,2.613500013947,2.093769550323,22.27634793708,0.9020676016808,498.50179795329944
220,2.623500004411,2.103947162628,22.26617032478,0.9077419638634,501.637571530572
221,2.633500009775,2.114078998566,22.25603848884,0.912026822567,504.0054758469896
222,2.643500000238,2.124123096466,22.24599439094,0.9158558249474,506.1214642357094
223,2.654000014067,2.134621143341,22.23549634407,0.9215807318687,509.28516991371606
224,2.66400000453,2.144665241241,22.22545224617,0.9263424277306,511.91658461483274
225,2.674000009894,2.154778003693,22.21533948372,0.9310573935509,514.5221752982011
226,2.684000000358,2.164879322052,22.20523816536,0.9379162192345,518.3125086709462
227,2.694000005722,2.174904346466,22.19521314094,0.9439586997032,521.651712265147
228,2.704500004649,2.185259342194,22.18485814521,0.9494251608849,524.6725953147564
229,2.715000003576,2.195438861847,22.17467862556,0.9556049704552,528.0876898997559
230,2.725500002503,2.205654621124,22.16446286628,0.9621261954308,531.6914579201763
231,2.735500007868,2.215736865997,22.15438062141,0.9664530158043,534.0825511504305
232,2.745500013232,2.226150989532,22.14396649788,0.9717487692833,537.009097482302
233,2.755500003695,2.236656665802,22.13346082161,0.9761700034142,539.452365768758
234,2.76550000906,2.246929645538,22.12318784187,0.9811138510704,542.1844414367354
235,2.776000007987,2.25727891922,22.11283856819,0.9878124594688,545.8862353202154
236,2.787000000477,2.26774263382,22.10237485359,0.9974846243858,551.2312799623702
237,2.797500014305,2.277937412262,22.09218007515,1.003270626068,554.4287479084123
238,2.807500004768,2.287964344025,22.08215314338,1.007063627243,556.524841263116
239,2.817500010133,2.298244953156,22.07187253425,1.009853601456,558.0666405238724
