,time,travel,position,force,stress
0,0.0,0.0,12.58126982016,-0.01359268091619,-8.178988119782652
1,0.0,0.0,12.58127065463,-0.01356836222112,-8.164355074300856
2,0.0,0.0,12.58125769062,-0.0134889241308,-8.116555585664909
3,0.0,0.0,12.58125476999,-0.01372790895402,-8.26035753628648
4,0.0,0.0,12.58125736279,-0.01365161500871,-8.214449942622702
5,0.0,0.0,12.99511670211,-0.01054720487446,-6.346464240352524
6,0.0,0.0,12.99511413735,-0.01089720334858,-6.557065326291347
7,0.007999986410141,-4.921636445943e-06,12.99511905899,-0.01163605973125,-7.001649997508465
8,0.01099999248981,-1.582556069479e-05,12.99512996292,-0.01166972145438,-7.02190492994374
9,0.01299999654293,-1.842499477789e-05,12.99513256235,-0.01182314381003,-7.114222231578901
10,0.01399999856949,-1.910951687023e-05,12.99513324687,-0.0119535587728,-7.192695524501363
11,0.1144999861717,1.855316804722e-05,12.99509558419,-0.009747927077115,-5.865522794790865
12,0.2144999951124,2.323109583813e-05,12.99509090626,-0.01083849929273,-6.521741921119059
13,0.3149999976158,2.403786675131e-05,12.99509009949,-0.01094219647348,-6.5841385899321265
14,0.4155000001192,5.82115862926e-05,12.99505592577,-0.01040623988956,-6.261642787990674
15,0.5159999877214,0.009820670820773,12.98529346653,-0.009918682277203,-5.968269615783873
16,0.5374999940395,0.01994869299233,12.97516544436,0.0067143519409,4.0401599283663385
17,0.5489999949932,0.03002521581948,12.96508892153,0.02183199673891,13.136749332943916
18,0.5569999963045,0.04012653231621,12.95498760504,0.01866770535707,11.232731885673896
19,0.5639999955893,0.05056735873222,12.94454677862,0.01297617703676,7.808025398245357
20,0.5704999864101,0.06106159090996,12.93405254644,0.009789951145649,5.8908095178003865
21,0.5764999985695,0.07110950350761,12.92400463385,0.009176127612591,5.521459614313384
22,0.5824999958277,0.0812871158123,12.91382702154,0.007781140971929,4.68206823658743
23,0.5884999930859,0.09133121371269,12.90378292364,0.006911986041814,4.159080321878572
24,0.5949999988079,0.1017834842205,12.89333065313,0.006745525170118,4.058917484215796
25,0.6019999980927,0.1121098697186,12.88300426764,0.002233930397779,1.3442006250653002
26,0.609999999404,0.1225316226482,12.87258251471,0.01822514086962,10.966431977112087
27,0.618499994278,0.1331250369549,12.8619891004,0.03027576953173,18.21753639654377
28,0.6264999955893,0.143352240324,12.85176189703,0.03737492114305,22.489237987093382
29,0.6339999884367,0.1533658206463,12.84174831671,0.04057688266039,24.41592230873681
30,0.6414999961853,0.1637112796307,12.83140285772,0.04294533282518,25.84106616958045
31,0.6489999890327,0.1743199527264,12.82079418463,0.04732746630907,28.477883580732062
32,0.6559999883175,0.1843220889568,12.8107920484,0.04598627239466,27.670860362875278
33,0.6634999960661,0.1946904361248,12.80042370123,0.04488838464022,27.010239330439788
34,0.6714999973774,0.2049176394939,12.79019649786,0.04720629006624,28.404969410479893
35,0.6804999858141,0.2150914371014,12.78002270025,0.05458772927523,32.84652909759932
36,0.6909999996424,0.2253987491131,12.76971538824,0.06341493874788,38.1580376846687
37,0.7029999941587,0.2357232272625,12.75939091009,0.07450807839632,44.833001803602215
38,0.7149999886751,0.2458588778973,12.74925525946,0.08727587014437,52.515637603489054
39,0.7259999960661,0.2560574710369,12.73905666632,0.09335840493441,56.17562050845424
40,0.7364999949932,0.266534537077,12.72857960028,0.09700144082308,58.36770810597033
41,0.7464999854565,0.2768418490887,12.71827228827,0.09951484948397,59.88007639478177
42,0.7564999908209,0.2870121896267,12.70810194773,0.1049756333232,63.16593931035754
43,0.766999989748,0.297399610281,12.69771452707,0.1116914078593,67.20695524272425
44,0.7774999886751,0.3074379861355,12.68767615122,0.1187753006816,71.46947531456638
45,0.7884999960661,0.3178444802761,12.67726965708,0.126168191433,75.91792562391862
46,0.7994999885559,0.3282299935818,12.66688414377,0.136530816555,82.15332453346325
47,0.809999987483,0.3382798135281,12.65683432383,0.1450490355492,87.27890736622773
48,0.8204999864101,0.348554700613,12.64655943674,0.1543263792992,92.86127075592603
49,0.8304999917746,0.3587323129177,12.63638182444,0.1636609435081,98.47806484082253
50,0.8399999886751,0.3688412606716,12.62627287668,0.1715154051781,103.20425160871031
51,0.8494999855757,0.3792859017849,12.61582823557,0.1772260069847,106.64043499453224
52,0.8589999973774,0.3897076547146,12.60540648264,0.1839341521263,110.67686016755123
53,0.868499994278,0.399881452322,12.59523268503,0.1909303069115,114.88658650668393
54,0.8784999996424,0.4101620614529,12.5849520759,0.1987180113792,119.57260413002341
55,0.8889999985695,0.4204140603542,12.574700077,0.2099027037621,126.3026573614064
56,0.8999999910593,0.4308796823025,12.56423445505,0.2216081023216,133.34602991946
57,0.9104999899864,0.4410077035427,12.55410643381,0.2332543730736,140.3538240924935
58,0.9209999889135,0.4515019357204,12.54361220163,0.242882668972,146.14736241302955
59,0.930999994278,0.4616528451443,12.53346129221,0.2522019743919,151.7549749792306
60,0.9409999996424,0.4718075692654,12.52330656809,0.263375222683,158.47814207156193
61,0.9509999901056,0.4818783700466,12.51323576731,0.2744149565697,165.12097087491696
62,0.9614999890327,0.4923115670681,12.50280257029,0.2866105437279,172.45929972231045
63,0.9719999879599,0.5025959610939,12.49251817626,0.2994355559349,180.17636621742557
64,0.982499986887,0.5128327012062,12.48228143615,0.3113908171654,187.37008614479407
65,0.9929999858141,0.5230656266212,12.47204851073,0.3238610625267,194.87368232936748
66,1.003499999642,0.5333538651466,12.46176027221,0.3370561003685,202.8134006537799
67,1.013999998569,0.543724834919,12.45138930244,0.3495872914791,210.35366911533458
68,1.024499997497,0.5541999936104,12.44091414374,0.3635071218014,218.72950957958597
69,1.03449998796,0.5642631649971,12.43085097236,0.3762749135494,226.41214537944273
70,1.044499993324,0.5743492245674,12.42076491279,0.3905228078365,234.98538849642853
71,1.054499998689,0.5843971371651,12.41071700019,0.4046715199947,243.49895174165323
72,1.064999997616,0.594879925251,12.4002342121,0.4201782643795,252.8296701541425
73,1.075499996543,0.6052940487862,12.38982008857,0.4367607533932,262.80768563730845
74,1.08599999547,0.6157158017159,12.37939833564,0.4535072743893,272.88440244684165
75,1.095999985933,0.6257217526436,12.36939238471,0.4688728749752,282.1301918110069
76,1.105999991298,0.6358001828194,12.35931395454,0.4848373830318,291.73635578544275
77,1.115999996662,0.6458862423897,12.34922789496,0.4997719228268,300.7227672454687
78,1.125999987125,0.6559494137764,12.33916472358,0.5152863264084,310.058094349946
79,1.13599999249,0.6659553647041,12.32915877265,0.5317925214767,319.990202239394
80,1.145999997854,0.6759727597237,12.31914137763,0.5493096113205,330.53058574497294
81,1.155999988317,0.6860054135323,12.30910872382,0.566594004631,340.93095108981436
82,1.165999993682,0.6960571408272,12.29905699653,0.586354136467,352.82101784916
83,1.175999999046,0.7061584591866,12.28895567817,0.6053055524826,364.22446411560105
84,1.18599998951,0.7163131833076,12.27880095405,0.6238602399826,375.3891908949977
85,1.195999994874,0.7263496518135,12.26876448554,0.6434143781662,387.1553071514132
86,1.206499993801,0.7367714047432,12.25834273261,0.6660050153732,400.7485456356845
87,1.216999992728,0.7472313046455,12.24788283271,0.6870774030685,413.4282230060278
88,1.226999998093,0.7572715878487,12.23784254951,0.7089661359787,426.5991116286236
89,1.236999988556,0.7673309445381,12.22778319282,0.7319382429123,440.4218880812438
90,1.24699999392,0.7774589657784,12.21765517158,0.754940867424,454.2630275713151
91,1.256999999285,0.7876532077789,12.20746092958,0.7762184143066,467.0661533302388
92,1.266999989748,0.7977850437164,12.19732909364,0.7995491027832,481.1046954731047
93,1.277499988675,0.8082602024078,12.18685393495,0.8239860534668,495.8088977240983
94,1.287999987602,0.8186819553375,12.17643218202,0.8492469787598,511.008901986692
95,1.297999992967,0.8287107944489,12.16640334291,0.8732490539551,525.4514309537822
96,1.307999998331,0.8388617038727,12.15625243348,0.8985404968262,540.669798253827
97,1.317999988794,0.8490736484528,12.1460404889,0.9229774475098,555.3740005048206
98,1.327999994159,0.8592627048492,12.13585143251,0.947322845459,570.0231136434008
99,1.337999999523,0.8692762851715,12.12583785218,0.9726982116699,585.2919792964511
100,1.34849999845,0.8795664310455,12.11554770631,0.9999885559082,601.7131255505338
101,1.358999997377,0.8897879123688,12.10532622499,1.02795791626,618.5428493883692
102,1.369499996305,0.9001905918121,12.09492354554,1.056453704834,635.6893356222203
103,1.379499986768,0.9102728366852,12.08484130067,1.082950592041,651.6330429021541
104,1.389499992132,0.9204466342926,12.07466750306,1.10998916626,667.9026940972805
105,1.399499997497,0.9306395053864,12.06447463197,1.137134552002,684.2366159232749
106,1.40949998796,0.940687417984,12.05442671937,1.164577484131,700.7495773647333
107,1.419999986887,0.9510462284088,12.04406790895,1.194133758545,718.5341791506261
108,1.430499985814,0.9613764286041,12.03373770875,1.225719451904,737.5399229278272
109,1.440999999642,0.9718325138092,12.02328162355,1.256397247314,755.999366340543
110,1.450999990106,0.9818918704987,12.01322226686,1.285724639893,773.646245346004
111,1.46099999547,0.9919817447662,12.00313239259,1.314128875732,790.7376424670808
112,1.470999985933,1.00200676918,11.99310736817,1.34289932251,808.0493960386536
113,1.481499999762,1.012474298477,11.98263983888,1.372936248779,826.1232156643555
114,1.491999998689,1.022896051407,11.97221808595,1.405254364014,845.5696723413452
115,1.501999989152,1.032917261124,11.96219687623,1.435146331787,863.5562675391393
116,1.511999994516,1.043159723282,11.95195441407,1.465825796127,882.0167151804344
117,1.521999999881,1.053524255753,11.9415898816,1.496335744858,900.3751618875003
118,1.531999990344,1.06382393837,11.93129019898,1.527166128159,918.9264204877725
119,1.541999995708,1.074005365372,11.92110877198,1.555753469467,936.1279958337965
120,1.552499994636,1.084450006485,11.91066413087,1.587774038315,955.3954128953221
121,1.562999993563,1.094702005386,11.90041213197,1.620855093002,975.3009455082876
122,1.57349999249,1.104931116104,11.89018302125,1.653524160385,994.9585771158742
123,1.583999991417,1.115322351456,11.8797917859,1.686345815659,1014.7080239110171
124,1.593999996781,1.125427484512,11.86968665284,1.718366384506,1033.975440971941
125,1.603999987245,1.135662317276,11.85945182008,1.749906301498,1052.953640193056
126,1.613999992609,1.145885705948,11.84922843141,1.780416250229,1071.3120869001218
127,1.623999997973,1.156051874161,11.83906226319,1.812886953354,1090.8503587640657
128,1.633999988437,1.166149377823,11.82896475953,1.845098257065,1110.2325448095855
129,1.643999993801,1.176178216934,11.81893592042,1.876569509506,1129.16942719627
130,1.654499992728,1.186634302139,11.80847983522,1.909902334213,1149.2264548686128
131,1.664999991655,1.196991205215,11.79812293214,1.943197011948,1169.260528744518
132,1.675499990582,1.207306146622,11.78780799073,1.975255727768,1188.5508996024816
133,1.68599998951,1.217542886734,11.77757125062,2.007924795151,1208.2085312100683
134,1.696499988437,1.227791070938,11.76732306642,2.040555715561,1227.8432090206154
135,1.706999987364,1.238189935684,11.75692420167,2.075170278549,1248.6714842663846
136,1.716999992728,1.248306512833,11.74680762452,2.10893034935,1268.9855944634035
137,1.726999998093,1.25852227211,11.73659186524,2.141759634018,1288.739632017593
138,1.736999988556,1.268688440323,11.72642569703,2.174009084702,1308.1447718601523
139,1.74699999392,1.278721094131,11.71639304322,2.208013296127,1328.6057863562985
140,1.757499992847,1.289175271988,11.70593886537,2.241377353668,1348.6816074498813
141,1.767999991775,1.299631357193,11.69548278016,2.275770664215,1369.3767506742654
142,1.777999997139,1.309686899185,11.68542723817,2.31002664566,1389.989260229789
143,1.787999987602,1.319936990738,11.67517714662,2.343016147614,1409.8397037311836
144,1.797999992967,1.330236673355,11.664877464,2.376387119293,1429.9196851999643
145,1.807999998331,1.340460062027,11.65465407533,2.41054391861,1450.4725148842685
146,1.817999988794,1.3505423069,11.64457183045,2.445066928864,1471.245701017865
147,1.828499987721,1.360954523087,11.63415961427,2.480185031891,1492.3769663817875
148,1.838999986649,1.37131524086,11.62379889649,2.517904758453,1515.073680689602
149,1.848999992013,1.38133263588,11.61378150147,2.552587985992,1535.9432727698018
150,1.858999997377,1.391533136368,11.60358100099,2.588659763336,1557.6483830548975
151,1.868999987841,1.401832818985,11.59328131837,2.621962070465,1577.6870476898496
152,1.878999993205,1.412128686905,11.58298545045,2.656179904938,1598.2766034489352
153,1.888999998569,1.422214746475,11.57289939088,2.690931797028,1619.1875123635655
154,1.899499997497,1.432548761368,11.56256537599,2.728125095367,1641.5674642748827
155,1.909999996424,1.442722558975,11.55239157838,2.764532566071,1663.4745679724817
156,1.920499995351,1.452972650528,11.54214148683,2.802275180817,1686.1850545586403
157,1.930999994278,1.463440179825,11.53167395753,2.839956760406,1708.8588150694154
158,1.940999999642,1.473655939102,11.52145819825,2.875288486481,1730.1186216962778
159,1.950999990106,1.483978509903,11.51113562745,2.910238742828,1751.1488903539487
160,1.96099999547,1.494217157364,11.50089697999,2.944715976715,1771.894531931459
161,1.970999985933,1.504230737686,11.49088339967,2.981337070465,1793.9301768907942
162,1.981499999762,1.514496088028,11.48061804933,3.020056247711,1817.2282806758685
163,1.991999998689,1.524685144424,11.47042899293,3.05807352066,1840.1040345991469
164,2.002499997616,1.53493142128,11.46018271607,3.097288608551,1863.7005377433277
165,2.012999996543,1.545333862305,11.44978027505,3.137193202972,1887.7119307648
166,2.022999987006,1.555400848389,11.43971328897,3.175088405609,1910.5142325385148
167,2.032999992371,1.565528869629,11.42958526773,3.211663722992,1932.522332941764
168,2.042999997735,1.575572967529,11.41954116983,3.249368190765,1955.209865730883
169,2.053499996662,1.585964202881,11.40914993447,3.288293361664,1978.6319200192484
170,2.063999995589,1.596166610718,11.39894752664,3.32692861557,2001.8795254511967
171,2.074499994516,1.606296539307,11.38881759805,3.36631155014,2025.5770253010273
172,2.084999993443,1.616548538208,11.37856559915,3.405259609222,2049.012851867135
173,2.095499992371,1.62693977356,11.36817436379,3.444383144379,2072.554265899143
174,2.105499997735,1.63698387146,11.35813026589,3.482553005219,2095.5218350099776
175,2.115499988198,1.647115707397,11.34799842996,3.521653652191,2119.04947676304
176,2.125499993563,1.657236099243,11.33787803811,3.560273647308,2142.287900676293
177,2.13599999249,1.667726516724,11.32738762063,3.601777553558,2167.2616316302065
178,2.146499991417,1.678148269653,11.3169658677,3.643891811371,2192.602623333743
179,2.156999990344,1.688581466675,11.30653267068,3.684052944183,2216.768380638847
180,2.167499989271,1.699033737183,11.29608040017,3.724984645844,2241.3978046407783
181,2.177999988198,1.709505081177,11.28560905618,3.767617702484,2267.0509679805614
182,2.187999993563,1.719594955444,11.27551918191,3.807336330414,2290.9504612428955
183,2.197999998927,1.729688644409,11.26542549295,3.847337245941,2315.019812601396
184,2.20799998939,1.739706039429,11.25540809793,3.888734340668,2339.929272924441
185,2.218499988317,1.750150680542,11.24496345681,3.932221889496,2366.096601313577
186,2.228999987245,1.760580062866,11.23453407449,3.97496175766,2391.8140352848304
187,2.239499986172,1.77098274231,11.22413139504,4.01825094223,2417.862003930323
188,2.25,1.781396865845,11.21371727151,4.06204366684,2444.2129626945716
189,2.260499998927,1.791833996773,11.20328014058,4.105267047882,2470.221336040427
190,2.270999997854,1.802332043648,11.19278209371,4.148830890656,2496.4345720236415
191,2.281499996781,1.812803387642,11.18231074971,4.192242145538,2522.555992818698
192,2.291999995708,1.823217511177,11.17189662618,4.236797809601,2549.366027519524
193,2.302499994636,1.833566784859,11.1615473525,4.280849933624,2575.8730721015945
194,2.312999993563,1.843954205513,11.15115993184,4.32470369339,2602.260756940624
195,2.32349999249,1.854436993599,11.14067714376,4.369198322296,2629.034065566066
196,2.333499997854,1.864492535591,11.13062160176,4.411877155304,2654.7147734625382
197,2.343499988317,1.87456715107,11.12054698628,4.453197956085,2679.5783261915044
198,2.353499993682,1.884626507759,11.1104876296,4.496334552765,2705.534479650043
199,2.363999992609,1.895109295845,11.10000484151,4.541241168976,2732.555689281465
200,2.374499991536,1.905460476875,11.08965366048,4.585026264191,2758.902057286065
201,2.384999990463,1.915710568428,11.07940356893,4.629810810089,2785.8498147673226
202,2.39549998939,1.926008343697,11.06910579366,4.675068378448,2813.0821993293416
203,2.405999988317,1.93649494648,11.05861919087,4.720661640167,2840.516577303865
204,2.415999993682,1.946588635445,11.04852550191,4.763309955597,2866.1789221629456
205,2.425999999046,1.95666706562,11.03844707173,4.808659076691,2893.4663958377396
206,2.43599998951,1.966741681099,11.02837245626,4.853992938995,2920.7446879932368
207,2.445999994874,1.976801037788,11.01831309957,4.898365497589,2947.4445444691155
208,2.456499993801,1.98720562458,11.00790851277,4.944767475128,2975.365542936302
209,2.466999992728,1.997562527657,10.9975516097,4.993183612823,3004.4985018761017
210,2.477499991655,2.008060455322,10.98705368203,5.039722919464,3032.5021340121502
211,2.48749999702,2.01819229126,10.97692184609,5.083424091339,3058.7980036636236
212,2.497499987483,2.028312683105,10.96680145425,5.130253314972,3086.9760846554864
213,2.507499992847,2.038391113281,10.95672302407,5.175877094269,3114.4288256674
214,2.517499998212,2.048427820206,10.94668631715,5.222017288208,3142.192303703735
215,2.527499988675,2.058487176895,10.93662696046,5.268068313599,3169.9021272403247
216,2.53749999404,2.068531274796,10.92658286256,5.315935134888,3198.7045515058853
217,2.547499999404,2.078632593155,10.9164815442,5.36212348938,3226.4970087107345
218,2.557499989867,2.088772058487,10.90634207887,5.409532546997,3255.023987414228
219,2.567499995232,2.098907709122,10.89620642823,5.45636177063,3283.202068406091
220,2.577499985695,2.108909845352,10.886204292,5.503999710083,3311.866769890618
221,2.587999999523,2.119392633438,10.87572150392,5.55272102356,3341.1833592055305
222,2.59849999845,2.129879236221,10.86523490113,5.601930618286,3370.7937571192983
223,2.608499988914,2.139915704727,10.85519843263,5.648683547974,3398.9259305176843
224,2.618499994278,2.149936914444,10.84517722291,5.694612503052,3426.562301904109
225,2.628999993205,2.16033577919,10.83477835816,5.743547439575,3456.0074324807574
226,2.639499992132,2.170570611954,10.8245435254,5.793016433716,3485.773916213552
227,2.649999991059,2.180824518204,10.81428961915,5.842699050903,3515.6689412080827
228,2.660499989986,2.191196680069,10.80391745729,5.892168045044,3545.435424940878
229,2.670999988914,2.201683282852,10.7934308545,5.942598342896,3575.7803443538924
230,2.680999994278,2.211708307266,10.78340583009,5.991548538208,3605.2346564492364
231,2.690999999642,2.221729516983,10.77338462037,6.040163040161,3634.4869751326787
232,2.701499998569,2.23219704628,10.76291709107,6.091569900513,3665.4195117446093
233,2.711999997497,2.242653131485,10.75246100587,6.143404006958,3696.609130880614
234,2.722499996424,2.253132104874,10.74198203248,6.195741653442,3728.1017401347717
235,2.732499986887,2.263164758682,10.73194937867,6.244478225708,3757.4275109683795
236,2.742999985814,2.273632287979,10.72148184938,6.296754837036,3788.8833941477556
237,2.753499999642,2.283947229385,10.71116690797,6.350542068481,3821.2482476815917
238,2.763999998569,2.294247865677,10.70086627168,6.403419971466,3853.0659400838463
239,2.774499997497,2.304665803909,10.69044833345,6.456459522247,3884.9808991998
240,2.78449998796,2.314687013626,10.68042712373,6.507500171661,3915.6930793618367
241,2.794499993324,2.324811220169,10.67030291719,6.558693408966,3946.4970747114285
