,time,travel,position,force,stress
0,0.0,0.0,21.1438461687,-0.00163873785641,-1.182826441176726
1,0.0,0.0,21.14384327787,-0.001635787426494,-1.1806968470480292
2,0.0,0.0,21.14383165496,-0.001801983802579,-1.3006559163355007
3,0.0,0.0,21.14384154934,-0.001894136308692,-1.3671707774066573
4,0.0,0.0,21.14383991021,-0.001925607561134,-1.3898864481161228
5,0.0,0.0,20.67370671418,-1.633509054955e-05,-0.011790523386914229
6,0.0,0.0,20.67369438668,0.0001397098676534,0.1008413425657737
7,0.008000000000038,1.351555874862e-05,20.67368087112,-0.0006499760784209,-0.46914696495315933
8,0.01099999999997,1.644177427806e-05,20.6736779449,-0.0008575492538512,-0.61897144079449
9,0.01300000000015,1.915378561534e-05,20.67367523289,-0.0008715712465346,-0.6290923906700523
10,0.01400000000012,1.591208456375e-05,20.67367847459,-0.0009333216585219,-0.673663290015811
11,0.114,-5.107771721669e-05,20.67374546439,0.001425880473107,1.0291878709895208
12,0.2139999999999,-4.135167546337e-05,20.67373573835,-0.0001069610225386,-0.07720351680354565
13,0.3140000000001,-6.191244028741e-05,20.67375629912,-0.00176051154267,-1.2707216071939624
14,0.414,9.290427442465e-06,20.67368509625,-0.0004413881106302,-0.31859002099223893
15,0.492,0.01014771312475,20.66354667355,0.005859193392098,4.229113790856083
16,0.5125,0.02042267099023,20.65327171569,0.02451488003135,17.69462284033628
17,0.5230000000001,0.03087303414941,20.64282135253,0.04190995916724,30.25023658161333
18,0.5305000000001,0.04148170724511,20.63221267943,0.03430345281959,24.75992780660935
19,0.537,0.05191108956933,20.62178329711,0.03386476263404,24.44328512399628
20,0.5430000000001,0.06224128976464,20.61145309691,0.03699281439185,26.701085121741194
21,0.549,0.07309410721064,20.60060027947,0.0475633405149,34.33079706534852
22,0.5545,0.08369515091181,20.58999923576,0.05561950430274,40.1456645900318
23,0.5595000000001,0.09386513382196,20.57982925285,0.05191257223487,37.47003392197116
24,0.5645,0.104134298861,20.56956008782,0.05048521980643,36.43978360668568
25,0.5699999999999,0.1150672212243,20.55862716545,0.03658827766776,26.40909410450253
26,0.576,0.125755995512,20.54793839116,0.04430779442191,31.980972787965907
27,0.5825,0.13612434268,20.537570044,0.05777749046683,41.70327985143244
28,0.5895,0.1463515460491,20.52734284063,0.06723985075951,48.533127533502714
29,0.597,0.1563727557659,20.51732163091,0.06957790255547,50.220712569928644
30,0.606,0.1665007770061,20.50719360967,0.06945702433586,50.13346374379223
31,0.6179999999999,0.1765048205853,20.49718956609,0.09451958537102,68.22339787208267
32,0.6310000000001,0.1867606341839,20.48693375249,0.1158685386181,83.63288285671102
33,0.6420000000001,0.1970183551311,20.47667603155,0.1209735572338,87.31763998716363
34,0.652,0.20741340518,20.4662809815,0.1254920661449,90.5790596180314
35,0.6615000000002,0.2176634967327,20.45603088994,0.1285853087902,92.81173470729283
36,0.671,0.2277610003948,20.44593338628,0.133199185133,96.1419897039884
37,0.681,0.2377974689007,20.43589691778,0.1426195800304,102.94154713618288
38,0.6915000000001,0.2478701770306,20.42582420965,0.155135601759,111.97550054186205
39,0.702,0.2579123675823,20.41578201909,0.1670145690441,120.54963370399618
40,0.7125000000001,0.2682635486126,20.40543083806,0.1767668426037,127.5887382091877
41,0.7225000000001,0.2783763110638,20.39531807561,0.1848025023937,133.38880613020032
42,0.7325000000001,0.2885844409466,20.38510994573,0.1924624145031,138.91766271006645
43,0.7425000000001,0.2986895740032,20.37500481267,0.202628582716,146.25551270275005
44,0.7530000000002,0.3091113269329,20.36458305974,0.2129244506359,153.68697879287862
45,0.7635,0.3194245696068,20.35426981707,0.2253244072199,162.6371574072482
46,0.7740000000001,0.3298234343529,20.34387095232,0.2367456108332,170.88088081366868
47,0.7840000000001,0.3398980498314,20.33379633685,0.2484986931086,179.36415129301403
48,0.7940000000001,0.3501290678978,20.32356531878,0.2580583393574,186.26421911481185
49,0.8040000000001,0.3604134917259,20.31328089495,0.2694642841816,194.49692886267962
50,0.8140000000001,0.370739877224,20.30295450945,0.2812021076679,202.96918568347232
51,0.8240000000001,0.3810243010521,20.29267008562,0.2936075031757,211.923290064771
52,0.8340000000001,0.391133248806,20.28256113787,0.3047998249531,220.00180859333463
53,0.8445000000002,0.4014157652855,20.27227862139,0.3193071186543,230.47304443656319
54,0.855,0.4116029143333,20.26209147234,0.3339708149433,241.05717027961367
55,0.8655000000001,0.4218911528587,20.25180323382,0.3470857441425,250.52340978234795
56,0.876,0.4323243498802,20.2413700368,0.3599107563496,259.78038977315913
57,0.886,0.4423760771751,20.2313183095,0.3728730976582,269.13649269065553
58,0.896,0.4525765776634,20.22111780901,0.3851793110371,278.0190082915424
59,0.9059999999999,0.4627122282982,20.21098215838,0.3966787159443,286.3191766978738
60,0.9165,0.4731416106224,20.20055277605,0.4111326038837,296.75186473620414
61,0.9270000000001,0.4833688139915,20.19032557269,0.426158696413,307.59756496928486
62,0.9375,0.4936093688011,20.18008501788,0.4403226673603,317.82099349569205
63,0.9480000000001,0.5039128661156,20.16978152056,0.4561803638935,329.26693811841307
64,0.9585,0.514403283596,20.15929110308,0.4713323414326,340.20350103435476
65,0.9684999999999,0.5245084166527,20.14918597002,0.484264165163,349.53757663474585
66,0.9784999999999,0.5346898436546,20.13900454302,0.4967801868916,358.571530040425
67,0.9885000000002,0.5447949767113,20.12889940997,0.5108373165131,368.7178414460724
68,0.9985000000001,0.5548238158226,20.11887057085,0.5243337154388,378.45942241190136
69,1.009,0.5653223991394,20.10837198754,0.5381562709808,388.4364203287792
70,1.0195,0.5758128166199,20.09788157006,0.553769826889,399.7061464150908
71,1.03,0.5862612724304,20.08743311425,0.5701920986176,411.55959640332196
72,1.04,0.5963854789734,20.0773089077,0.5851190090179,422.33370785591865
73,1.05,0.6066355705261,20.06705881615,0.5975511074066,431.30708613966647
74,1.06,0.6167368888855,20.05695749779,0.6135385036469,442.84664685990464
75,1.07,0.626739025116,20.04695536156,0.6273095607758,452.78647367924856
76,1.0805,0.6372218132019,20.03647257347,0.6420533657074,463.42842122957416
77,1.091,0.6475977897644,20.02609659691,0.6594979763031,476.019786338957
78,1.1015,0.658046245575,20.0156481411,0.6781671047211,489.4949975450435
79,1.1115,0.6682467460632,20.00544764061,0.692010641098,499.48713924235005
80,1.1215,0.6784663200378,19.99522806664,0.7092645168304,511.9408336201494
81,1.1315,0.6887392997742,19.9849550869,0.7259423732758,523.9787623886865
82,1.1415,0.6989741325378,19.97472025414,0.7406175136566,534.5711484756334
83,1.1515,0.7089915275574,19.96470285912,0.7585351467133,547.5039369993548
84,1.162,0.7194819450378,19.95421244164,0.7770211696625,560.8469843030981
85,1.172,0.7295527458191,19.94414164086,0.7936570644379,572.8546255106334
86,1.1825,0.7400431632996,19.93365122338,0.8131387233734,586.9163140331514
87,1.1925,0.7501330375671,19.92356134911,0.8308846950531,599.725198898426
88,1.2025,0.7602381706238,19.91345621605,0.8470208644867,611.3721427892459
89,1.2125,0.7702403068542,19.90345407982,0.8666093349457,625.5109269214881
90,1.2225,0.7802653312683,19.89342905541,0.8834969997406,637.7002934946732
91,1.2325,0.7902674674988,19.88342691918,0.9005219936371,649.9887829946157
92,1.243,0.8006701469421,19.87302423973,0.919778585434,663.8880200539331
93,1.2535,0.8111186027527,19.86257578392,0.9376924037933,676.818055162926
94,1.264,0.8215707540512,19.85212363263,0.9563990831375,690.3203702942842
95,1.274,0.8316148519516,19.84207953473,0.974831700325,703.6248697932015
96,1.284,0.8418229818344,19.83187140484,0.9913264513016,715.5306346593954
97,1.294,0.8520463705063,19.82164801617,1.00998032093,728.9948322065684
98,1.304,0.8621553182602,19.81153906842,1.02797806263,741.98544243807
99,1.3145,0.8726266622543,19.80106772442,1.046891331673,755.6368721805661
100,1.325,0.8829416036606,19.79075278302,1.067662358284,770.6292148482937
101,1.3355,0.8932203054428,19.78047408123,1.086484074593,784.2145626399068
102,1.346,0.9034742116928,19.77022017498,1.104561924934,797.2629945775288
103,1.3565,0.9137719869614,19.75992239972,1.123608708382,811.0107938326314
104,1.367,0.9241555929184,19.74953879376,1.142373204231,824.5548404040404
105,1.377,0.9341653585434,19.73952902813,1.159993290901,837.2728625865262
106,1.387,0.9442399740219,19.72945441265,1.178162693977,850.387376475753
107,1.397,0.9543069601059,19.71938742657,1.196885228157,863.9011354868819
108,1.4075,0.9646810293198,19.70901335736,1.214703679085,876.7623352303359
109,1.4185,0.9749006032944,19.69879378338,1.230584263802,888.2248003409941
110,1.4315,0.985120177269,19.68857420941,1.245999455452,899.3513488661932
111,1.45,0.9952548742294,19.67843951245,1.263522267342,911.9991589757757
112,1.456,0.9974244832993,19.67626990338,1.268605351448,915.6680839717927
113,1.556,1.003911375999,19.66978301068,1.276903390884,921.6575351927038
114,1.656,1.003149151802,19.67054523487,1.264598846436,912.7762242113291
115,1.756,1.002312421799,19.67138196488,1.256916642189,907.2312773643829
116,1.856,1.001626968384,19.67206741829,1.24996483326,902.2135233758082
117,1.956,1.001100182533,19.67259420414,1.243921041489,897.8511681133467
118,2.056,1.000709056854,19.67298532982,1.237023949623,892.8729084152387
119,2.156,1.000470280647,19.67322410603,1.235012531281,891.4210845070529
120,2.256,1.000251173973,19.6734432127,1.230449199677,888.1273122542452
121,2.356,1.000162482262,19.67353190442,1.225121974945,884.2821687210969
122,2.456,1.000076889992,19.67361749669,1.22333574295,882.9928823196768
123,2.556,1.000047206879,19.6736471798,1.218726634979,879.6660690914277
124,2.656,1.000040888786,19.67365349789,1.217120051384,878.5064513107719
125,2.756,1.000018596649,19.67367579003,1.21500658989,876.9809735610918
126,2.856,0.9999949932098,19.67369939347,1.214348554611,876.506009536685
127,2.956,0.9999778866768,19.6737165,1.211703777313,874.5970327550344
128,3.056,1.000014901161,19.67367948552,1.207629919052,871.6565580171937
129,3.156,0.9999948740005,19.67369951268,1.207171320915,871.3255459519044
130,3.256,0.9999785423279,19.67371584435,1.205081224442,869.8169328670206
131,3.356,1.000013232231,19.67368115445,1.203232049942,868.4822151240977
132,3.456,1.000037789345,19.67365659733,1.204042077065,869.0668855125964
133,3.556,1.000022053719,19.67367233296,1.201772689819,867.4288619389429
134,3.656,1.000027775764,19.67366661091,1.197388410568,864.264328085465
135,3.756,1.00001347065,19.67368091603,1.198359370232,864.9651581538026
136,3.856,1.000008583069,19.67368580361,1.193997859955,861.8170587436863
137,3.956,1.000014781952,19.67367960472,1.193369150162,861.3632615948145
138,4.056,1.000028610229,19.67366577645,1.192908167839,861.0305286452298
139,4.156,0.9999803304672,19.67371405621,1.190268874168,859.1255098968815
140,4.256,1.000023961067,19.67367042561,1.190501689911,859.2935542339701
141,4.356,1.000027894974,19.6736664917,1.188899993896,858.1374642651818
142,4.456,0.9999929666519,19.67370142002,1.1873691082,857.0324845562154
143,4.556,1.000017881393,19.67367650528,1.185044527054,855.3546225153804
144,4.656,1.000028967857,19.67366541882,1.18436396122,854.8633961363303
145,4.756,1.000028133392,19.67366625328,1.184527754784,854.9816208771795
146,4.856,1.000022053719,19.67367233296,1.181206464767,852.5843432189149
147,4.956,1.000007987022,19.67368639965,1.182465672493,853.4932281802411
148,5.056,1.000037550926,19.67365683575,1.179072737694,851.0442379541669
149,5.156,1.000006079674,19.673688307,1.180876255035,852.3460007649247
150,5.256,1.000032544136,19.67366184254,1.178664565086,850.7496225881898
151,5.356,1.000007033348,19.67368735333,1.176644682884,849.2916895409716
152,5.456,1.000002026558,19.67369236012,1.176768064499,849.3807452956831
153,5.556,1.00001502037,19.67367936631,1.174206495285,847.5318273706033
154,5.656,1.000000715256,19.67369367142,1.175071358681,848.1560780942888
155,5.756,1.000001072884,19.67369331379,1.175064921379,848.1514317068354
156,5.856,1.000027418137,19.67366696854,1.171232938766,845.3855406651069
157,5.956,1.00000834465,19.67368604203,1.173577427864,847.0777720890151
158,6.056,1.000014662743,19.67367972393,1.169243812561,843.9498070235677
159,6.156,0.9999824762344,19.67371191044,1.168633460999,843.5092606829047
160,6.256,1.000015616417,19.67367877026,1.168355584145,843.3086916358076
161,6.356,1.000030994415,19.67366339226,1.169453978539,844.101502961293
162,6.456,1.000003695488,19.67369069119,1.169255137444,843.9579812236102
163,6.556,1.000016570091,19.67367781659,1.166269659996,841.8030900973582
164,6.656,1.000014901161,19.67367948552,1.165250062943,841.0671539932907
165,6.756,1.000013828278,19.6736805584,1.163865327835,840.0676644816758
166,6.856,1.000014901161,19.67367948552,1.166783213615,842.1737685418325
167,6.956,0.9999852776527,19.67370910902,1.162490844727,839.0755747726757
168,7.056,1.00003194809,19.67366243859,1.164745569229,840.70301490784
169,7.156,0.9999858140945,19.67370857258,1.161643981934,838.4643167244828
170,7.256,0.9999886155128,19.67370577116,1.162317037582,838.95012231793
171,7.356,1.000023961067,19.67367042561,1.161881089211,838.6354586527259
172,7.456,1.000004768372,19.67368961831,1.162248492241,838.9006468991269
173,7.556,1.000002741814,19.67369164486,1.161347985268,838.2506689578948
174,7.656,1.000001907349,19.67369247933,1.156501293182,834.7523696239663
175,7.756,1.000034093857,19.67366029282,1.157424330711,835.4186099205633
176,7.856,0.9999992251396,19.67369516154,1.157730817795,835.6398295777626
177,7.956,0.9999901652336,19.67370422144,1.155472993851,834.0101522928699
178,8.056,1.000002741814,19.67369164486,1.156935453415,835.0657426270315
179,8.156,1.000010967255,19.67368341942,1.154118061066,833.0321738335048
180,8.256,1.000008106232,19.67368628045,1.155554413795,834.0689204858579
181,8.356,0.9999939799309,19.67370040675,1.153856754303,832.843564931034
182,8.456,1.000010490417,19.67368389626,1.153111577034,832.3057025916187
183,8.556,1.000004768372,19.67368961831,1.153921246529,832.890114847401
184,8.656,1.000013232231,19.67368115445,1.154539108276,833.3360819729448
185,8.756,1.000020384789,19.67367400189,1.15064907074,830.5282874030246
186,8.856,1.00001513958,19.6736792471,1.152291893959,831.7140626226617
187,8.956,1.000015735626,19.67367865105,1.150031924248,830.0828365421918
188,9.056,1.000028014183,19.67366637249,1.150259971619,830.2474391106897
189,9.156,0.9999751448631,19.67371924181,1.150319099426,830.2901170370309
190,9.256,1.000033855438,19.67366053124,1.150203704834,830.2068262446368
191,9.356,1.000035047531,19.67365933915,1.149128556252,829.4307935399496
192,9.456,1.000010848045,19.67368353863,1.146776199341,827.7328831984438
193,9.556,1.000023245811,19.67367114087,1.146451234818,827.4983266897592
194,9.656,0.9999933242798,19.6737010624,1.147053003311,827.9326778473915
195,9.756,1.000009417534,19.67368496914,1.142560482025,824.6900158536841
196,9.856,1.000046133995,19.67364825268,1.146194696426,827.3131595551575
197,9.956,0.9999999403954,19.67369444628,1.144523739815,826.107077902855
198,10.056,1.000015377998,19.67367900868,1.144385695457,826.0074387103758
199,10.156,1.000037312508,19.67365707417,1.143542051315,825.3985038559097
200,10.256,1.00000667572,19.67368771096,1.141884446144,824.2020591545067
201,10.356,1.000005602837,19.67368878384,1.143098711967,825.0785054491008
202,10.456,1.000001072884,19.67369331379,1.141684174538,824.0575048866797
203,10.556,1.000012516975,19.6736818697,1.141030550003,823.5857244981473
204,10.656,1.000002622604,19.67369176407,1.139758825302,822.6678048953527
205,10.756,0.9999846816063,19.67370970507,1.140572190285,823.2548845215762
206,10.856,1.000027418137,19.67366696854,1.138986706734,822.1104965654197
207,10.956,1.000018119812,19.67367626686,1.13866341114,821.8771446748758
208,11.056,0.9999850988388,19.67370928784,1.140622973442,823.2915393536051
209,11.156,1.00002515316,19.67366923352,1.136652946472,820.4260091201194
210,11.256,1.00001502037,19.67367936631,1.136863827705,820.5782213225559
211,11.356,0.9999898672104,19.67370451947,1.138041377068,821.4281660021757
212,11.456,0.9999991059303,19.67369528075,1.135929107666,819.9035486939214
213,11.556,0.9999825358391,19.67371185084,1.13468515873,819.0056773917976
214,11.656,0.9999703168869,19.67372406979,1.136451363564,820.2805083661463
215,11.756,1.000002622604,19.67369176407,1.135871052742,819.8616451650079
216,11.856,1.000002264977,19.6736921217,1.133520245552,818.1648533983663
217,11.956,0.9999877810478,19.67370660563,1.134543776512,818.9036289615934
218,12.056,0.9999669790268,19.67372740765,1.134564518929,818.9186006540979
219,12.156,0.999992787838,19.67370159884,1.130087971687,815.6874685835824
220,12.256,1.000001311302,19.67369307537,1.131969332695,817.0454182623286
221,12.356,1.000032901764,19.67366148491,1.133754014969,818.3335860888844
222,12.456,0.9999725222588,19.67372186442,1.132240653038,817.2412548779741
223,12.556,0.9999938011169,19.67370058556,1.129653811455,815.374095581239
224,12.656,0.9999995827675,19.67369480391,1.131210803986,816.4979189720135
225,12.756,1.000011920929,19.67368246575,1.128990530968,814.8953456122481
226,12.856,1.000017642975,19.6736767437,1.129931926727,815.5748367163326
227,12.956,1.000006437302,19.67368794938,1.12831056118,814.4045494539109
228,13.056,1.000003218651,19.67369116803,1.12949848175,815.2619799787003
229,13.156,1.000020980835,19.67367340584,1.127385735512,813.7370184944531
230,13.256,1.000004053116,19.67369033356,1.128408908844,814.4755359249638
231,13.356,0.9999551177025,19.67373926897,1.128671646118,814.6651773575787
232,13.456,0.9999629855156,19.67373140116,1.128904461861,814.8332216946675
233,13.556,0.999984562397,19.67370982428,1.128647685051,814.6478824720695
234,13.656,1.000004887581,19.6736894991,1.128017663956,814.1931388370516
235,13.756,1.000014185905,19.67368020077,1.128878235817,814.8142919688609
236,13.856,1.000005960464,19.67368842621,1.125886201859,812.6546684118789
237,13.956,1.000003933907,19.67369045277,1.125457286835,812.3450813541193
238,14.056,1.000002503395,19.67369188328,1.12484896183,811.9059977643137
239,14.156,0.9999892711639,19.67370511551,1.123609542847,811.0113961420626
240,14.256,1.00002515316,19.67366923352,1.126079916954,812.7944902482542
241,14.356,1.000040769577,19.6736536171,1.124944090843,811.9746610416398
242,14.456,1.000015497208,19.67367888947,1.12495136261,811.9799097385245
243,14.556,0.9999871253967,19.67370726128,1.12354528904,810.9650183144139
244,14.656,1.000017881393,19.67367650528,1.122640609741,810.312028825304
245,14.756,1.000021100044,19.67367328663,1.123417377472,810.8726928798296
246,14.856,1.000004529953,19.67368985672,1.122894048691,810.494958810177
247,14.956,1.000030040741,19.67366434594,1.120561957359,808.8116759837391
248,15.056,1.000000476837,19.67369390984,1.120190382004,808.5434761901819
249,15.156,0.9999907016754,19.673703685,1.120229721069,808.5718707781699
250,15.256,0.9999980926514,19.67369629403,1.119391679764,807.9669800017258
251,15.356,1.000018000603,19.67367638607,1.119531393051,808.0678238123455
252,15.456,0.9999997615814,19.6736946251,1.118784546852,807.5287568540678
253,15.556,1.000015854836,19.67367853184,1.118715882301,807.4791953905448
254,15.656,1.000017523766,19.67367686291,1.11827814579,807.1632410617581
255,15.756,1.000003933907,19.67369045277,1.120049357414,808.4416858926943
256,15.856,0.9999976754189,19.67369671126,1.120094895363,808.4745547801393
257,15.956,0.9999905228615,19.67370386382,1.117271542549,806.4366837758739
258,16.056,0.9999902248383,19.67370416184,1.116411924362,805.8162189974942
259,16.156,1.000018835068,19.67367555161,1.118093490601,807.0299585851282
260,16.256,0.999988257885,19.67370612879,1.118294000626,807.1746849416734
261,16.356,0.9999966025352,19.67369778414,1.118008375168,806.9685230209767
262,16.456,0.9999876618385,19.67370672484,1.118885874748,807.601894430129
263,16.556,1.000006079674,19.673688307,1.115058898926,804.8396172457096
264,16.656,1.000010490417,19.67368389626,1.117550253868,806.6378551324023
