,time,travel,position,force,stress
0,0.0,0.0,19.84333154943,-0.01546200178564,-8.544631994028883
1,0.0,0.0,19.84332999971,-0.01555760763586,-8.597465826150467
2,0.0,0.0,19.84332371142,-0.01585154421628,-8.759901450210785
3,0.0,0.0,19.84332278755,-0.01493983156979,-8.256069594765378
4,0.0,0.0,19.84332082059,-0.01484994776547,-8.206397887260405
5,0.0,0.0,20.2035917563,-0.01542379707098,-8.52351925379432
6,0.0,0.0,20.20358342316,-0.01550427079201,-8.567990748554468
7,0.008000001311302,2.13086605072e-06,20.20358129229,-0.01581797003746,-8.74134764285157
8,0.01100000739098,7.257796823978e-06,20.20357616536,-0.01579808443785,-8.73035843634366
9,0.01300001144409,6.434507668018e-06,20.20357698865,-0.01582406461239,-8.744715634956268
10,0.01399999856949,5.376525223255e-06,20.20357804663,-0.01588509976864,-8.778444964190898
11,0.1140000075102,7.857801392674e-06,20.20357556536,-0.01403017900884,-7.753376186531371
12,0.2145000100136,2.908701162596e-06,20.20358051446,-0.01142651867121,-6.314537947412872
13,0.3149999976158,2.805961401009e-07,20.20358314256,-0.01321126241237,-7.300825407683484
14,0.4150000065565,1.560893542774e-05,20.20356781422,-0.01394425984472,-7.705895423767406
15,0.4645000100136,0.01053727790713,20.19304614525,0.04599472880363,25.417668212739212
16,0.4710000008345,0.02061952278018,20.18296390038,0.0899553000927,49.71121759398624
17,0.4755000025034,0.03156770393252,20.17201571923,0.1019029319286,56.31373379164451
18,0.4790000021458,0.04232515022159,20.16125827294,0.118222206831,65.33211319578503
19,0.4820000082254,0.0531436316669,20.15043979149,0.1425294578075,78.76481856344223
20,0.4845000058413,0.06342805922031,20.14015536394,0.1645326316357,90.92424175256811
21,0.4870000034571,0.07493318617344,20.12865023699,0.17976090312,99.33970939656706
22,0.4890000075102,0.08498872816563,20.11859469499,0.1906861960888,105.37725932959361
23,0.4910000115633,0.09577669203281,20.10780673113,0.2037172019482,112.57847112120112
24,0.4930000007153,0.107297077775,20.09628634538,0.2190370261669,121.04453275906583
25,0.4950000047684,0.119504109025,20.08407931413,0.2353334128857,130.0502636647399
26,0.4970000088215,0.1324130445719,20.07117037859,0.2521791160107,139.35955853349802
27,0.4985000044107,0.1425448805094,20.06103854265,0.2649354636669,146.40898834350827
28,0.5,0.1530581861734,20.05052523699,0.2778749167919,153.55960614125001
29,0.5015000104904,0.1639071851969,20.03967623796,0.2909669578075,160.7945472620645
30,0.5030000060797,0.1751071363688,20.02847628679,0.3039064109325,167.94516505980624
31,0.5045000016689,0.1866427809,20.01694064226,0.3162965476513,174.79221889446393
32,0.5060000121593,0.1984530836344,20.00513033952,0.3280458152294,181.28511477211657
33,0.5075000077486,0.21056856215,19.99301486101,0.3398713767529,187.82017231136086
34,0.5090000033379,0.2229281812906,19.98065524187,0.3520173728466,194.53230882902477
35,0.5104999989271,0.2354709059,19.96811251726,0.3635682761669,200.91558438667175
36,0.5120000094175,0.2481967359781,19.95538668718,0.3746766746044,207.05432230737458
37,0.5135000050068,0.2610446214676,19.94253880169,0.3863649070263,213.51348885582019
38,0.515000000596,0.2740145921707,19.92956883099,0.3980989158154,219.99795240119872
39,0.5165000110865,0.287015080452,19.91656834271,0.4096040427685,226.35593096191278
40,0.5180000066757,0.3000460863113,19.90353733685,0.422665566206,233.57400741812378
41,0.519500002265,0.3130465745926,19.89053684857,0.4389009177685,242.5460089945356
42,0.5209999978542,0.3260470628738,19.87753636029,0.4587678611279,253.52490566042178
43,0.5225000083447,0.3389559984207,19.86462742474,0.4816865622997,266.1902687879842
44,0.5240000039339,0.3518649339676,19.85171848919,0.5056123733521,279.41218231740146
45,0.5254999995232,0.3647433519363,19.83884007122,0.5290193557739,292.34738007884096
46,0.5270000100136,0.3775607347488,19.82602268841,0.5516939163208,304.8778258895201
47,0.5285000056028,0.3903475999832,19.81323582318,0.5736665725708,317.02038441398724
48,0.5300000011921,0.4030734300613,19.8005099931,0.5941133499146,328.3197097076162
49,0.5315000116825,0.4157687425613,19.7878146806,0.6124849319458,338.4722378072125
50,0.5330000072718,0.4283419847488,19.77524143841,0.6305818557739,348.4729839252667
51,0.534500002861,0.4407931566238,19.76279026654,0.6511812210083,359.85663254196845
52,0.5359999984503,0.4530917406082,19.75049168255,0.6750764846802,373.06166493734025
53,0.5375000089407,0.4652682542801,19.73831516888,0.7011384963989,387.4640885205
54,0.53900000453,0.4773226976395,19.72626072552,0.7278718948364,402.23753472526835
55,0.5405000001192,0.4892550706863,19.71432835247,0.7544832229614,416.9435222715674
56,0.5420000106096,0.5010958909988,19.70248753216,0.7806062698364,431.3796751839894
57,0.5435000061989,0.5128146409988,19.69076878216,0.8064851760864,445.68091077947287
58,0.5450000017881,0.5244113206863,19.67917210247,0.8325471878052,460.0833343626879
59,0.5465000122786,0.5359011888504,19.66768223431,0.8586702346802,474.5194872751099
60,0.5480000078678,0.5472995042801,19.65628391888,0.8849153518677,489.0230988460012
61,0.5495000034571,0.5585910081863,19.64499241497,0.9115266799927,503.72908639230025
62,0.5509999990463,0.5697909593582,19.6337924638,0.9385652542114,518.671179243214
63,0.5525000095367,0.5808993577957,19.62268406536,0.9659090042114,533.7819187403287
64,0.554000005126,0.591946721077,19.61163670208,0.9931306838989,548.8251995789741
65,0.5555000007153,0.602933049202,19.60065037396,1.019680976868,563.4974577962319
66,0.5570000112057,0.6138583421707,19.58972508099,1.045559883118,577.7986933917153
67,0.5585000067949,0.6247378587723,19.57884556439,1.071255683899,591.9987409993569
68,0.5600000023842,0.6355715990067,19.56801182415,1.097195625305,606.3337059239368
69,0.5614999979734,0.6463595628738,19.55722386029,1.123257637024,620.7361295072624
70,0.5630000084639,0.6571170091629,19.546466414,1.148770332336,634.8349891270617
71,0.5645000040531,0.6678286790848,19.53575474407,1.174160957336,648.8663900886681
72,0.5659999996424,0.6785250902176,19.52505833294,1.199612617493,662.9315203799237
73,0.5675000101328,0.6891757249832,19.51440769818,1.224637031555,676.760545365846
74,0.569000005722,0.6997958421707,19.50378758099,1.248684883118,690.049901084567
75,0.5705000013113,0.7104159593582,19.4931674638,1.272427558899,703.1706101567001
76,0.5720000118017,0.7209903001785,19.48259312298,1.296292304993,716.358777887579
77,0.573500007391,0.7315646409988,19.47201878216,1.320767402649,729.8842389105279
78,0.5750000029802,0.742108464241,19.46147495892,1.34597492218,743.8144518842922
79,0.5764999985695,0.7526370286942,19.45094639446,1.37136554718,757.8458528458987
80,0.5780000090599,0.7631503343582,19.4404330888,1.396573066711,771.776065819663
81,0.5795000046492,0.7736636400223,19.42991978314,1.42165851593,785.6388201352345
82,0.5810000002384,0.7841464281082,19.41943699505,1.446499824524,799.3666571338674
83,0.5825000107288,0.7946292161942,19.40895420696,1.470913887024,812.8583888277198
84,0.5840000063181,0.805096745491,19.39848667767,1.494961738586,826.147744545888
85,0.5855000019073,0.8155642747879,19.38801914837,1.519436836243,839.6732055693894
86,0.5870000123978,0.8260318040848,19.37755161907,1.544278144836,853.4010425674697
87,0.588500007987,0.8364840745926,19.36709934857,1.568936347961,867.0276915782606
88,0.5900000035763,0.8469363451004,19.35664707806,1.593167304993,880.4182352848236
89,0.5914999991655,0.8573886156082,19.34619480755,1.617398262024,893.8087789908338
90,0.593000009656,0.867840886116,19.33574253704,1.641690254211,907.2330520259407
91,0.5945000052452,0.8782931566238,19.32529026654,1.66628742218,920.8259717076351
92,0.5960000008345,0.8887454271317,19.31483799603,1.691250801086,934.6212673644609
93,0.5975000113249,0.8991824388504,19.30440098431,1.716336250305,948.4840216800324
94,0.5990000069141,0.9096194505692,19.29396397259,1.741604804993,962.4479639834458
95,0.6005000025034,0.9200564622879,19.28352696087,1.767117500305,976.5468236032452
96,0.6019999980927,0.9304782152176,19.27310520794,1.792630195618,990.6456832235972
97,0.6035000085831,0.9409152269363,19.26266819622,1.817959785461,1004.6433548555545
98,0.6050000041723,0.9513674974442,19.25221592571,1.843106269836,1018.5398385002225
99,0.6064999997616,0.961819767952,19.24176365521,1.868069648743,1032.335134157601
100,0.608000010252,0.9722720384598,19.2313113847,1.893277168274,1046.2653471313654
101,0.6095000058413,0.9827243089676,19.22085911419,1.919034004211,1060.4991240681034
102,0.6110000014305,0.9931765794754,19.21040684368,1.944851875305,1074.7666303344904
103,0.6125000119209,1.003644108772,19.19993931439,1.970608711243,1089.000407271781
104,0.6140000075102,1.01409637928,19.18948704388,1.996182441711,1103.1329962206767
105,0.6155000030994,1.024563908577,19.17901951458,2.021512031555,1117.1306678531867
106,0.6169999986887,1.035016179085,19.16856724407,2.046841621399,1131.1283394856966
107,0.6185000091791,1.045468449593,19.15811497357,2.07253742218,1145.328387093338
108,0.6200000047684,1.055905461311,19.14767796185,2.098355293274,1159.595893359725
109,0.6215000003576,1.066327214241,19.13725620892,2.12429523468,1173.930858284305
110,0.623000010848,1.076748967171,19.12683445599,2.150418281555,1188.3670111967272
111,0.6245000064373,1.087155461311,19.11642796185,2.176663398743,1202.8706227678947
112,0.6260000020266,1.097546696663,19.1060367265,2.203152656555,1217.5091516554482
113,0.6274999976158,1.107937932014,19.09564549114,2.230130195618,1232.4175151774314
114,0.6290000081062,1.118313908577,19.08526951458,2.257534980774,1247.5619840036425
115,0.6305000036955,1.128689885139,19.07489353802,2.285367012024,1262.942558134634
116,0.6319999992847,1.139050602913,19.06453282025,2.313321113586,1278.3905909238188
117,0.6335000097752,1.149426579475,19.05415684368,2.341153144836,1293.7711650548104
118,0.6350000053644,1.159787297249,19.04379612591,2.368618965149,1308.9493632106705
119,0.6365000009537,1.170132756233,19.03345066693,2.396023750305,1324.0938320368816
120,0.6380000114441,1.180478215218,19.02310520794,2.42361164093,1339.339488850935
121,0.6395000070333,1.190838932991,19.01274449017,2.451382637024,1354.68633365283
122,0.6410000026226,1.201184391975,19.00239903118,2.479092597961,1369.9994491250761
123,0.6424999982119,1.211545109749,18.99203831341,2.506741523743,1385.2788352687785
124,0.6440000087023,1.221905827522,18.98167759564,2.534268379211,1400.4907627531825
125,0.6455000042915,1.232266545296,18.97131687786,2.561978340149,1415.8038782259812
126,0.6469999998808,1.24261713028,18.96096629288,2.590470552444,1431.5492824842206
127,0.6485000103712,1.252977848053,18.95060557511,2.619340181351,1447.5032552126156
128,0.6500000059605,1.263323307037,18.94026011612,2.647904634476,1463.2885812944228
129,0.6515000015497,1.273684024811,18.92989939835,2.676102876663,1478.871531400546
130,0.6530000120401,1.284029483795,18.91955393936,2.704056978226,1494.3195641902832
131,0.6545000076294,1.29437494278,18.90920848038,2.732133150101,1509.8350556382134
132,0.6560000032187,1.304705142975,18.89887828018,2.760819673538,1525.6878403782137
133,0.6574999988079,1.31503534317,18.88854807999,2.789811372757,1541.7092717648013
134,0.6590000092983,1.325365543365,18.87821787979,2.818497896194,1557.5620565048016
135,0.6605000048876,1.335680484772,18.86790293839,2.847184419632,1573.4148412453544
136,0.6620000004768,1.345995426178,18.85758799698,2.876481294632,1589.6049192779772
137,0.6635000109673,1.356310367584,18.84727305557,2.905900239944,1605.862455968793
138,0.6650000065565,1.36662530899,18.83695811417,2.935441255569,1622.1874513183543
139,0.6665000021458,1.376940250397,18.82664317276,2.965287446976,1638.6810933145034
140,0.667999997735,1.387239933014,18.81634349015,2.995255708694,1655.2421939682927
141,0.6695000082254,1.397570133209,18.80601328995,3.025407075882,1671.9044826104766
142,0.6710000038147,1.407885074615,18.79569834854,3.055741548538,1688.6679592399498
143,0.672499999404,1.418215274811,18.78536814835,3.086137056351,1705.4651651990723
144,0.6740000098944,1.428560733795,18.77502268936,3.116349458694,1722.1611831698
145,0.6755000054836,1.43890619278,18.76467723038,3.146683931351,1738.9246597998263
146,0.6770000010729,1.449266910553,18.75431651261,3.176835298538,1755.5869484414575
147,0.6785000115633,1.459642887115,18.74394053604,3.206742525101,1772.114319766703
148,0.6800000071526,1.470034122467,18.73354930069,3.236527681351,1788.574232433203
149,0.6815000027418,1.480425357819,18.72315806534,3.266434907913,1805.1016037578956
150,0.6829999983311,1.490801334381,18.71278208878,3.296891450882,1821.9325390461147
151,0.6845000088215,1.501192569733,18.70239085343,3.328080415726,1839.168226285149
152,0.6860000044107,1.511599063873,18.69198435929,3.359452486038,1856.5051015114732
153,0.6875,1.521990299225,18.68159312393,3.390641450882,1873.7407887505076
154,0.6890000104904,1.532412052155,18.671171371,3.421830415726,1890.9764759895422
155,0.6905000060797,1.542833805084,18.66074961807,3.452958345413,1908.1784338989276
156,0.6920000016689,1.553240299225,18.65034312393,3.484208345413,1925.4478504670585
157,0.6935000121593,1.563646793365,18.63993662979,3.515763521194,1942.8859136812246
158,0.6950000077486,1.574068546295,18.62951487686,3.547440767288,1960.3914355541363
159,0.6965000033379,1.584505558014,18.61907786515,3.578690767288,1977.6608521222672
160,0.6979999989271,1.594927310944,18.60865611222,3.609635591507,1994.7616220443633
161,0.6995000094175,1.605349063873,18.59823435929,3.640885591507,2012.0310386124943
162,0.7010000050068,1.615770816803,18.58781260636,3.672745943069,2029.6377484726952
163,0.702500000596,1.626207828522,18.57737559464,3.705155611038,2047.5480222964225
164,0.7040000110865,1.636629581451,18.56695384171,3.737687349319,2065.5257547783426
165,0.7055000066757,1.647051334381,18.55653208878,3.770035982132,2083.4022992729733
166,0.707000002265,1.6574883461,18.54609507706,3.802140474319,2101.1439264501128
167,0.7084999978542,1.66791009903,18.53567332413,3.834367036819,2118.953012285998
168,0.7100000083447,1.678331851959,18.5252515712,3.866715669632,2136.8295567806285
169,0.7115000039339,1.688768863678,18.51481455948,3.898881196976,2154.6049132874173
170,0.7129999995232,1.699175357819,18.50440806534,3.931351900101,2172.5489164402406
171,0.7145000100136,1.709597110748,18.49398631241,3.964493989944,2190.863942214231
172,0.7160000056028,1.720034122467,18.48354930069,3.997941255569,2209.3476146348085
173,0.7175000011921,1.730471134186,18.47311228897,4.031449794769,2227.8651481399074
174,0.7190000116825,1.740908145905,18.46267527725,4.064958095551,2246.382549890134
175,0.7205000072718,1.751360416412,18.45222300675,4.098527431488,2264.933680968905
176,0.722000002861,1.761827945709,18.44175547745,4.132218837738,2283.552270706421
177,0.7234999984503,1.772295475006,18.43128794815,4.165971279144,2302.204589773034
178,0.7250000089407,1.782778263092,18.42080516007,4.199540615082,2320.755720852357
179,0.72650000453,1.793276309967,18.41030711319,4.233170986176,2339.340581260777
180,0.7280000001192,1.803759098053,18.39982432511,4.266984462738,2358.026629656486
181,0.7295000106096,1.814272403717,18.38931101944,4.300920009613,2376.780136710941
182,0.7310000061989,1.824785709381,18.37879771378,4.335221767426,2395.73601974108
183,0.7325000017881,1.835314273834,18.36826914932,4.369645595551,2414.7593614294115
184,0.7340000122786,1.845842838287,18.35774058487,4.404069423676,2433.7827031177435
185,0.7355000078678,1.856401920319,18.34718150284,4.438432216644,2452.7723154764262
186,0.7370000034571,1.86696100235,18.33662242081,4.472611904144,2471.6607398478195
187,0.7384999990463,1.87753534317,18.32604807999,4.506608486176,2490.4479762319233
188,0.7400000095367,1.88810968399,18.31547373917,4.540666103363,2509.268941944571
189,0.741500005126,1.8986992836,18.30488413956,4.575212001801,2528.359742291648
190,0.7430000007153,1.909288883209,18.29429453995,4.609818935394,2547.4842719672697
191,0.7445000112057,1.919878482819,18.28370494034,4.644425868988,2566.6088016434433
192,0.7460000067949,1.930468082428,18.27311534073,4.679154872894,2585.8007899778104
193,0.7475000023842,1.941057682037,18.26252574112,4.714189052582,2605.161424958765
194,0.7489999979734,1.951647281647,18.25193614151,4.749650478363,2624.758165243947
195,0.7505000084639,1.962252140045,18.24133128311,4.785356044769,2644.4898228460684
196,0.7520000040531,1.972841739655,18.2307416835,4.820695400238,2664.0191044730573
197,0.7534999996424,1.983431339264,18.2201520839,4.855790615082,2683.4134687831083
198,0.7550000101328,1.994020938873,18.20956248429,4.891313076019,2703.043938397387
199,0.756500005722,2.004610538483,18.19897288468,4.927323818207,2722.944242646096
200,0.7580000013113,2.015184879303,18.18839854386,4.963517665863,2742.945734882094
201,0.7595000118017,2.025774478912,18.17780894425,4.999894618988,2763.0484151059336
202,0.761000007391,2.036348819733,18.16723460343,5.036515712738,2783.286012646712
203,0.7625000029802,2.046923160553,18.15666026261,5.073380947113,2803.658527504429
204,0.7639999985695,2.057497501373,18.14608592179,5.110368251801,2824.098501020892
205,0.7655000090599,2.068071842194,18.13551158097,5.147233486176,2844.471015878609
206,0.7670000046492,2.078646183014,18.12493724015,5.184037685394,2864.809801406677
207,0.7685000002384,2.089235782623,18.11434764054,5.221024990082,2885.2497749231397
208,0.7700000107288,2.099810123444,18.10377329972,5.258012294769,2905.6897484390497
209,0.7715000063181,2.110384464264,18.0931989589,5.295304775238,2926.298368601547
210,0.7730000019073,2.120958805084,18.08262461807,5.332902431488,2947.0756354100795
211,0.7745000123978,2.131548404694,18.07203501847,5.370805263519,2968.0215488646472
212,0.776000007987,2.142122745514,18.06146067765,5.408647060394,2988.9337329901186
213,0.7775000035763,2.152712345123,18.05087107804,5.446122646332,3009.643541140458
214,0.7789999991655,2.163317203522,18.04026621964,5.482987880707,3030.0160559981755
215,0.780500009656,2.173906803131,18.02967662003,5.519608974457,3050.253653538954
216,0.7820000052452,2.18449640274,18.01908702042,5.556291103363,3070.5249804088285
217,0.7835000008345,2.195070743561,18.0085126796,5.593156337738,3090.897495266546
218,0.7850000113249,2.205645084381,17.99793833878,5.630387783051,3111.472386099947
219,0.7865000069141,2.216204166412,17.98737925675,5.668107509613,3132.3171115666723
220,0.7880000025034,2.226747989655,17.9768354335,5.706376552582,3153.4654009969245
221,0.7894999980927,2.237276554108,17.96630686905,5.744828701019,3174.7148784144656
222,0.7910000085831,2.247805118561,17.9557783046,5.783158779144,3195.8968971738136
223,0.7925000041723,2.258318424225,17.94526499893,5.821488857269,3217.0789159331616
224,0.7939999997616,2.268846988678,17.93473643448,5.860185146332,3238.463310668194
225,0.795500010252,2.279345035553,17.92423838761,5.899369716644,3260.117540036551
226,0.7970000058413,2.289858341217,17.91372508194,5.938615322113,3281.8054987345563
227,0.7985000014305,2.300356388092,17.90322703507,5.977555751801,3303.324810786527
228,0.8000000119209,2.310869693756,17.8927137294,6.016068935394,3324.608017533165
229,0.8015000075102,2.321367740631,17.88221568253,6.054765224457,3345.9924122681973
230,0.8030000030994,2.331881046295,17.87170237686,6.094132900238,3367.7478296243958
231,0.8044999986887,2.342394351959,17.8611890712,6.133744716644,3389.6381642975334
232,0.8060000091791,2.352922916412,17.85066050675,6.173417568207,3411.56222830032
233,0.8075000047684,2.363466739655,17.8401166835,6.213395595551,3433.654938949141
234,0.8090000003576,2.374025821686,17.82955760147,6.253678798676,3455.9162962439973
235,0.810500010848,2.384600162506,17.81898326065,6.293900966644,3478.1439242092047
236,0.8120000064373,2.395205020905,17.80837840225,6.333878993988,3500.236634858026
237,0.8135000020266,2.405825138092,17.79775828507,6.373307704926,3522.0257815438736
238,0.8149999976158,2.416460514069,17.78712290909,6.412431240082,3543.646281583134
239,0.8165000081062,2.427111148834,17.77647227432,6.451554775238,3565.2667816223943
