,time,travel,position,force,stress
0,0.0,0.0,25.33928023727,-0.002850924385712,-1.5754816262753126
1,0.0,0.0,25.33928400866,-0.002785955322906,-1.5395783363669004
2,0.0,0.0,25.33928202867,-0.002443902427331,-1.3505526102222576
3,0.0,0.0,25.33927340695,-0.00167047244031,-0.9231387019934638
4,0.0,0.0,25.33927253244,-0.001635424909182,-0.9037706887219769
5,0.0,0.0,25.33929279548,-0.002371147740632,-1.310346818481813
6,0.0,0.0,25.33928996379,-0.002793148625642,-1.5435535088932577
7,0.008000001311302,9.536743164063e-06,25.33928042705,-0.002743810880929,-1.5162884187818688
8,0.01100000739098,-1.359730958939e-07,25.33929009977,-0.002656668890268,-1.4681318959882372
9,0.01299999654293,-3.958120942116e-06,25.33929392191,-0.002643790561706,-1.461015056927807
10,0.01399999856949,-5.448237061501e-06,25.33929541203,-0.002670493442565,-1.475771638467751
11,0.1140000075102,4.146319406573e-05,25.3392485006,-0.003354069311172,-1.8535302442564314
12,0.2144999951124,1.766361674527e-05,25.33927230018,-0.001912149018608,-1.056694334165902
13,0.3145000040531,-3.58439115189e-06,25.33929354818,-0.003301496151835,-1.8244771950118435
14,0.4150000065565,-1.529039508341e-07,25.3392901167,-0.002137596253306,-1.1812812848901568
15,0.5154999941587,8.382731903112e-05,25.33920613647,-0.0007263406878337,-0.401391357074655
16,0.5614999979734,0.01028587762266,25.32900408617,0.02011798508465,11.117627678024549
17,0.570999994874,0.02086593955755,25.31842402424,0.0659401267767,36.43992057159046
18,0.5764999985695,0.03168442100286,25.30760554279,0.07780002057552,42.99395085849019
19,0.5805000066757,0.04184677451849,25.29744318927,0.07236789166927,39.99204055660804
20,0.5840000063181,0.05211593955755,25.28717402424,0.07460688054562,41.22935356771522
21,0.5875000059605,0.06360580772161,25.27568415607,0.08955286443233,49.48882306404062
22,0.590499997139,0.07461502403021,25.26467493976,0.103621467948,57.26343345264791
23,0.5929999947548,0.08466293662786,25.25462702716,0.1113805621862,61.551274431555456
24,0.5955000072718,0.09554245322943,25.24374751056,0.1144094318151,63.22509239482056
25,0.5980000048876,0.1072001680732,25.23208979572,0.1139242500067,62.95697057848332
26,0.6005000025034,0.1195597872138,25.21973017658,0.1113474220037,61.53296045981989
27,0.6025000065565,0.1298899948597,25.20939996893,0.108722910285,60.082599302758396
28,0.6044999957085,0.1405558884144,25.19873407538,0.1057741492987,58.45305108412583
29,0.6064999997616,0.1515269577503,25.18776300604,0.1022074073553,56.48199340695464
30,0.6085000038147,0.1627726852894,25.1765172785,0.09637854993343,53.26084246505015
31,0.6105000078678,0.1742167770863,25.16507318671,0.08960364758968,49.51688692000613
32,0.6124999970198,0.1858134567738,25.15347650702,0.08308814466,45.91628102421343
33,0.6145000010729,0.1974711716175,25.14181879218,0.07544349133968,41.691682537571765
34,0.616500005126,0.2091136276722,25.13017633612,0.06849311292171,37.850755170977486
35,0.618499994278,0.2206950485706,25.11859491522,0.06306861341,34.853061035254505
36,0.6204999983311,0.2321849167347,25.10710504706,0.0568201392889,31.400020954855716
37,0.6225000023842,0.2434764206409,25.09581354315,0.05152533948421,28.474001643750107
38,0.6245000064373,0.2545390427113,25.08475092108,0.05149291455746,28.456082937598527
39,0.6264999955893,0.2654185593128,25.07387140448,0.0579244941473,32.010311005695684
40,0.6284999996424,0.2761149704456,25.06317499335,0.06704925000668,37.052845726275756
41,0.6305000036955,0.2866587936878,25.0526311701,0.07589934766293,41.943598465297235
42,0.6325000077486,0.2970958054066,25.04219415839,0.08218596875668,45.41771937646421
43,0.6344999969006,0.3074412643909,25.0318486994,0.0834953635931,46.14131889269771
44,0.6365000009537,0.3176646530628,25.02162531073,0.08036158978939,44.40952864480765
45,0.6385000050068,0.327720195055,25.01156976874,0.07598231732845,41.989449272221506
46,0.6410000026226,0.3399730026722,24.99931696112,0.0731365531683,40.4168192966603
47,0.6435000002384,0.3518138229847,24.98747614081,0.07463477551937,41.244768925214295
48,0.6459999978542,0.3632426559925,24.9760473078,0.08140586316586,44.98661638718426
49,0.64849999547,0.3743052780628,24.96498468573,0.09194205701351,50.80914184630897
50,0.651000007987,0.3850474655628,24.95424249823,0.1039507240057,57.44538737322397
51,0.6535000056028,0.3955760300159,24.94371393378,0.1160204261541,64.1153622293515
52,0.6560000032187,0.4059367477894,24.933353216,0.1260454505682,69.65540455616033
53,0.6585000008345,0.4161753952503,24.92311456854,0.1339037269354,73.99805569512598
54,0.6609999984503,0.426353007555,24.91293695624,0.1412966102362,78.083520698681
55,0.6634999960661,0.4364695847034,24.90282037909,0.1483080238104,81.95817739449886
56,0.6659999936819,0.4465709030628,24.89271906073,0.1544802039862,85.36905581336127
57,0.6685000061989,0.4566417038441,24.88264825995,0.1596834510565,88.24448113060664
58,0.6710000038147,0.4666972458363,24.87259271796,0.1647112220526,91.02293462631282
59,0.6735000014305,0.4767375290394,24.86255243475,0.1690142005682,93.40085233734047
60,0.6759999990463,0.4867625534534,24.85252741034,0.1722528785467,95.19061486984444
61,0.6784999966621,0.4967723190784,24.84251764471,0.1753389686346,96.89605407927564
62,0.6815000027418,0.5087504386902,24.8305395251,0.1787760108709,98.79543693178526
63,0.6844999939203,0.5206828117371,24.81860715206,0.1843302100897,101.86480589216428
64,0.6875,0.5325952768326,24.80669468696,0.1909279972315,105.51088379871157
65,0.6905000060797,0.5444818735123,24.79480809028,0.1961808353662,108.41371419593074
66,0.6934999972582,0.5563989877701,24.78289097602,0.2004647403955,110.78109149158811
67,0.6965000033379,0.5683008432388,24.77098912055,0.2036194950342,112.52447619641863
68,0.6994999945164,0.5802026987076,24.75908726509,0.206976428628,114.37958930435097
69,0.702500000596,0.5920740365982,24.74721592719,0.2109894901514,116.59729270150723
70,0.7055000066757,0.6039301156998,24.73535984809,0.2164101749659,119.59287875418379
71,0.7084999978542,0.6157556772232,24.72353428657,0.2219491153955,122.65381538217818
72,0.7115000039339,0.6275507211685,24.71173924262,0.2269654422998,125.42594462865114
73,0.7144999951124,0.6393457651138,24.69994419868,0.2317376285791,128.06315655818557
74,0.7175000011921,0.6511408090591,24.68814915473,0.2369752079248,130.9575546231306
75,0.7205000072718,0.6629511117935,24.676338852,0.2419724613428,133.71914345423326
76,0.7234999984503,0.6747614145279,24.66452854926,0.2466950565577,136.3289503037939
77,0.72650000453,0.6865411996841,24.65274876411,0.2510247528553,138.72163283104987
78,0.7294999957085,0.6983362436295,24.64095372016,0.256132632494,141.5443560713886
79,0.7325000017881,0.7101312875748,24.62915867622,0.2620148956776,144.7950201763796
80,0.7355000078678,0.7219263315201,24.61736363227,0.2676987946033,147.93606396130969
81,0.7384999990463,0.7337213754654,24.60556858833,0.2728524506092,150.7840841985813
82,0.741500005126,0.7455316781998,24.59375828559,0.2783265411854,153.8091834143278
83,0.7444999963045,0.7573419809341,24.58194798286,0.2842622101307,157.08936068238876
84,0.7475000023842,0.7691828012466,24.57010716255,0.2895455658436,160.00905574426665
85,0.7504999935627,0.7810388803482,24.55825108344,0.2941918671131,162.57670093223567
86,0.7534999996424,0.792940735817,24.54634922798,0.2986016571522,165.01364496945845
87,0.756500005722,0.8048731088638,24.53441685493,0.3035188019276,167.73096405592858
88,0.7594999969006,0.8168207406998,24.52246922309,0.3089051544666,170.70757736085022
89,0.7625000029802,0.8288141489029,24.51047581489,0.3132729828358,173.12133248423632
90,0.765000000596,0.8388239145279,24.50046604926,0.3170113861561,175.18725389985053
91,0.7674999982119,0.8488336801529,24.49045628364,0.3214669525623,177.64949493395096
92,0.7699999958277,0.858858704567,24.48043125923,0.3259988129139,180.153897629643
93,0.7724999934435,0.8688989877701,24.47039097602,0.3307214081287,182.7637044791484
94,0.7750000059605,0.8789697885513,24.46032017524,0.3354554474354,185.3798355779423
95,0.7775000035763,0.8890405893326,24.45024937446,0.3400521576405,187.92007568593752
96,0.7800000011921,0.899141907692,24.4401480561,0.3442788422108,190.25583173542879
97,0.7824999988079,0.9092737436295,24.43001622016,0.3477998077869,192.20159241561183
98,0.7849999964237,0.919420838356,24.41986912544,0.3510918915272,194.02086811124101
99,0.7874999940395,0.9295526742935,24.4097372895,0.3541589081287,195.71576690524665
100,0.7900000065565,0.939684510231,24.39960545356,0.3577027618885,197.6741760839514
101,0.7925000041723,0.9498010873795,24.38948887641,0.3616814911366,199.87290673346325
102,0.7950000017881,0.9598871469498,24.37940281684,0.3659539520741,202.2339597798874
103,0.797499999404,0.9699732065201,24.36931675727,0.3707146942616,204.86484746018863
104,0.7999999970198,0.9800440073013,24.35924595649,0.3760934174061,207.8372445989732
105,0.8024999946356,0.9900842905045,24.34920567329,0.38180783391,210.9951530485621
106,0.8050000071526,1.000124573708,24.33916539009,0.387049227953,213.89165919660329
107,0.8075000047684,1.010149598122,24.32914036567,0.3919511139393,216.60054595074402
108,0.8100000023842,1.020174622536,24.31911534126,0.3968606293201,219.31364887102185
109,0.8125,1.03019964695,24.30909031684,0.4024987518787,222.42939565907432
110,0.8149999976158,1.040239930153,24.29905003364,0.4074387848377,225.1593632440109
111,0.8174999952316,1.050280213356,24.28900975044,0.4112801849842,227.2822029027241
112,0.8200000077486,1.060320496559,24.27896946723,0.4154496490955,229.58633770604928
113,0.8225000053644,1.070376038551,24.26891392524,0.4202065765858,232.2151173033096
114,0.8250000029802,1.080431580544,24.25885838325,0.4253259003162,235.04416479282625
115,0.827500000596,1.090502381325,24.24878758247,0.4301591217518,237.71510605162294
116,0.8299999982119,1.100588440895,24.2387015229,0.4341187775135,239.90329628570925
117,0.8324999958277,1.110689759254,24.22860020454,0.4381165802479,242.1125673505914
118,0.8349999934435,1.120775818825,24.21851414497,0.4424081146717,244.48416081238585
119,0.8375000059605,1.130892395973,24.20839756782,0.4469552338123,246.99699584035204
120,0.8400000035763,1.141024231911,24.19826573188,0.4516778290272,249.60680268991268
121,0.8425000011921,1.151156067848,24.18813389594,0.4560456573963,252.0205578132435
122,0.8449999988079,1.161287903786,24.17800206001,0.4605279266834,254.4975554289065
123,0.8474999964237,1.171434998512,24.16785496528,0.4649567902088,256.9450398814996
124,0.8499999940395,1.181597352028,24.15769261176,0.4690766632557,259.22176960485103
125,0.8525000065565,1.191744446754,24.14754551704,0.4726167023182,261.1780707004596
126,0.8550000041723,1.201891541481,24.13739842231,0.4769311249256,263.56231266072047
127,0.8575000017881,1.212008118629,24.12728184516,0.4818253815174,266.26698324872416
128,0.859999999404,1.222139954567,24.11715000923,0.4864487946033,268.8219799382267
129,0.8624999970198,1.232256531715,24.10703343208,0.4905343353748,271.0797369138785
130,0.8649999946356,1.242357850075,24.09693211372,0.4949708282948,273.53143753266386
131,0.8675000071526,1.252428650856,24.08686131294,0.4998345673084,276.21924345600877
132,0.8700000047684,1.262484192848,24.07680577094,0.5040345191956,278.5402264546061
133,0.8725000023842,1.272524476051,24.06676548774,0.5084023475647,280.95398157793693
134,0.8754999935627,1.284517884254,24.05477207954,0.5144715309143,284.30794175370033
135,0.8784999996424,1.296480774879,24.04280918891,0.5210785865784,287.95914164336983
136,0.881500005722,1.308428406715,24.03086155708,0.5283722877502,291.98979648686674
137,0.8844999969006,1.320376038551,24.01891392524,0.5348725318909,295.5819700503964
138,0.8875000029802,1.332323670387,24.00696629341,0.5411744117737,299.06452329386514
139,0.8904999941587,1.344301819801,23.99498814399,0.5477204322815,302.68199385427243
140,0.8935000002384,1.356310486794,23.982979477,0.553099155426,305.65439099305695
141,0.8959999978542,1.366335511208,23.97295445259,0.5577492713928,308.2241442641221
142,0.89849999547,1.376375794411,23.96291416938,0.5626854896545,310.95200376596256
143,0.901000007987,1.386461853981,23.95282810981,0.5673317909241,313.5196489539868
144,0.9035000056028,1.39656317234,23.94272679145,0.5718903541565,316.03880823118624
145,0.9060000032187,1.406695008278,23.93259495551,0.57634973526,318.5031573483828
146,0.9085000008345,1.416842103004,23.92244786079,0.5799889564514,320.51426860399425
147,0.9109999984503,1.426989197731,23.91230076606,0.5842499732971,322.8689974011852
148,0.9134999960661,1.437151551247,23.90213841255,0.5890908241272,325.5441548261189
149,0.9159999936819,1.447329163551,23.89196080024,0.5936951637268,328.08861110025117
150,0.9185000061989,1.457522034645,23.88176792915,0.5986084938049,330.8038221036252
151,0.9210000038147,1.467714905739,23.87157505805,0.6037011146545,333.61811301163453
152,0.9235000014305,1.477907776833,23.86138218696,0.6081032752991,336.05084088272025
153,0.9259999990463,1.488115906715,23.85117405708,0.6121354103088,338.2790846952468
154,0.9284999966621,1.498324036598,23.84096592719,0.6164689064026,340.67386707093317
155,0.930999994278,1.508501648903,23.83078831489,0.62127161026,343.32794366507113
156,0.9335000067949,1.518664002419,23.82062596137,0.6267876625061,346.3762317946543
157,0.9360000044107,1.528811097145,23.81047886665,0.6324028968811,349.47933008424036
158,0.9385000020266,1.538943767548,23.80034619624,0.6369917988777,352.015255209668
159,0.9409999996424,1.549060344696,23.7902296191,0.6419852375984,354.7747359576745
160,0.9434999972582,1.559146404266,23.78014355953,0.6481574177742,358.18561437653693
161,0.945999994874,1.569232463837,23.77005749996,0.6537459492683,361.2739560845604
162,0.948500007391,1.579288005829,23.76000195796,0.6579459309578,363.5949555525443
163,0.9510000050068,1.589313030243,23.74997693355,0.6630766987801,366.4303272913495
164,0.9539999961853,1.601306438446,23.73798352535,0.6699507832527,370.22909299636865
165,0.957000002265,1.61328458786,23.72600537593,0.6768935322762,374.06580419684246
166,0.9599999934435,1.625277996063,23.71401196773,0.6849806904793,378.53494032041726
167,0.9629999995232,1.637271404266,23.70201855953,0.6914427876472,382.1060330530958
168,0.965499997139,1.64729642868,23.69199353511,0.6963561177254,384.821244056525
169,0.9679999947548,1.657321453094,23.6819685107,0.701147377491,387.46899640142976
170,0.9705000072718,1.667361736298,23.67192822749,0.7060645222664,390.1863154878999
171,0.9730000048876,1.677432537079,23.66185742671,0.7116034626961,393.24725211594955
172,0.9755000025034,1.68750333786,23.65178662593,0.7169364094734,396.1943522578012
173,0.9780000001192,1.697604656219,23.64168530757,0.7217772603035,398.869509682735
174,0.980499997735,1.707705974579,23.63158398921,0.725733101368,401.0555918337804
175,0.9829999953508,1.717822551727,23.62146741207,0.7296355366707,403.21216082170065
176,0.9855000078678,1.727939128876,23.61135083492,0.7340262532234,405.6385644434979
177,0.9880000054836,1.738055706024,23.60123425777,0.7392066121101,408.5013412622768
178,0.9905000030994,1.748157024384,23.59113293941,0.7440550923347,411.18071485334764
179,0.9930000007153,1.758288860321,23.58100110347,0.7488883137703,413.85165611214427
180,0.9954999983311,1.768405437469,23.57088452632,0.753263771534,416.2696274016675
181,0.9979999959469,1.778506755829,23.56078320796,0.7583830952644,419.0986748911841
182,1.000499993563,1.788608074188,23.5506818896,0.7637313008308,422.0542073653652
183,1.00300000608,1.798709392548,23.54058057124,0.7691176533699,425.0308206703421
184,1.005500003695,1.808810710907,23.53047925289,0.7739623188972,427.70808617831676
185,1.008000001311,1.818912029266,23.52037793453,0.7782004475594,430.0501664770965
186,1.010499998927,1.828982830048,23.51030713374,0.7825568318367,432.4575973511941
187,1.012999996543,1.839053630829,23.50023633296,0.7879431843758,435.43421065617105
188,1.015499994159,1.849093914032,23.49019604976,0.7932150959969,438.3475814688157
189,1.018000006676,1.859118938446,23.48017102535,0.7983420491219,441.1808451245247
190,1.020500004292,1.869128704071,23.47016125972,0.8031218647957,443.8222732201962
191,1.02349999547,1.881106853485,23.45818311031,0.8092902302742,447.23104355596246
192,1.02650000155,1.89306974411,23.44622021968,0.8157752156258,450.8147847871627
193,1.029500007629,1.904986858368,23.43430310542,0.8231375813484,454.88338512605895
194,1.032499998808,1.916934490204,23.42235547359,0.8305152058601,458.9604177972846
195,1.035500004888,1.928866863251,23.41042310054,0.8370154500008,462.55259136081423
196,1.038499996066,1.940799236298,23.39849072749,0.8432334065437,465.98876677655426
197,1.041500002146,1.952731609344,23.38655835445,0.8492529988289,469.31532187234393
198,1.044499993324,1.964648723602,23.37464124019,0.8552382588387,472.6229042204339
199,1.047499999404,1.97656583786,23.36272412593,0.8612578511238,475.9494593161683
200,1.050500005484,1.988467693329,23.35082227046,0.867780983448,479.5542813781091
201,1.053499996662,2.000369548798,23.33892041499,0.8744567036629,483.2434267631779
202,1.056500002742,2.012271404266,23.32701855953,0.8811858296394,486.96208531126143
203,1.05949999392,2.024188518524,23.31510144527,0.8875029683113,490.4530708870596
204,1.0625,2.036105632782,23.30318433101,0.8931487202644,493.57303384124907
205,1.06550000608,2.04802274704,23.29126721675,0.8993666768074,497.0092092570444
206,1.068499997258,2.059939861298,23.27935010249,0.9064467549324,500.92181144826156
207,1.071500003338,2.071856975555,23.26743298824,0.9138396382332,505.0072764518166
208,1.074499994516,2.08381986618,23.25547009761,0.9198516011238,508.32961538141393
209,1.077500000596,2.095782756805,23.24350720699,0.9259780049324,511.7151968033434
210,1.080500006676,2.10774564743,23.23154431636,0.9320891499519,515.0923458929435
211,1.083499997854,2.119723796844,23.21956616695,0.9378531575203,518.2776594225614
212,1.086500003934,2.131686687469,23.20760327632,0.9430831074715,521.1678413213695
213,1.089499995112,2.143619060516,23.19567090328,0.9491294026375,524.5091529986664
214,1.092500001192,2.155551433563,23.18373853023,0.9557746052742,528.1814337190765
215,1.095500007272,2.167422771454,23.17186719234,0.9621222615242,531.6892839594781
216,1.09849999845,2.179278850555,23.16001111324,0.9692252278328,535.6145346491618
217,1.10150000453,2.191119670868,23.14817029292,0.976122200489,539.4259488526474
218,1.104499995708,2.202945232391,23.1363447314,0.982225716114,542.7988817761105
219,1.107500001788,2.214740276337,23.12454968746,0.9884207844734,546.2224086934393
220,1.110500007868,2.226535320282,23.11275464351,0.9945357441902,549.6016658661356
221,1.113499999046,2.23828458786,23.10100537593,1.001104712486,553.2318178636722
222,1.116500005126,2.250033855438,23.08925610835,1.007948279381,557.0137189043642
223,1.119499996305,2.261767864227,23.07752209957,1.015089392662,560.9600504246778
224,1.122500002384,2.273517131805,23.06577283199,1.022680640221,565.1551357484595
225,1.125499993563,2.285251140594,23.0540388232,1.029219031334,568.7683901425639
226,1.128499999642,2.296985149384,23.04230481441,1.035253882408,572.1033775705172
227,1.131500005722,2.308749675751,23.03054028804,1.041494727135,575.552201485
228,1.134499996901,2.320514202118,23.01877576167,1.048429846764,579.3846965193368
229,1.13750000298,2.332278728485,23.00701123531,1.055189490318,583.1202197316921
230,1.140499994159,2.344089031219,22.99520093257,1.061239600182,586.4636394924721
231,1.143500000238,2.355899333954,22.98339062984,1.067892432213,590.1401363789087
232,1.146500006318,2.367755413055,22.97153455074,1.074735999107,593.9220374190481
233,1.149499997497,2.379657268524,22.95963269527,1.080213904381,596.9492447181672
234,1.152500003576,2.391559123993,22.9477308398,1.085359930992,599.7930487890806
235,1.155499994755,2.403476238251,22.93581372554,1.091783881187,603.3430606908528
236,1.158500000834,2.415408611298,22.92388135249,1.098947882652,607.302040709854
237,1.161500006914,2.427356243134,22.91193372066,1.105387091637,610.860484944453
238,1.164499998093,2.439303874969,22.89998608882,1.112062811852,614.549630329577
