,time,travel,position,force,stress
0,0.0,0.0,25.4344879815,-0.01974976807833,-10.058474286671174
1,0.0,0.0,25.43448759407,-0.01978565007448,-10.076748837248061
2,0.0,0.0,25.4345021078,-0.01969055272639,-10.028316155573007
3,0.0,0.0,25.43450166077,-0.01946298219264,-9.912415434458213
4,0.0,0.0,25.43449832291,-0.01964656449854,-10.005913135092431
5,0.0,0.0,25.80824635025,-0.02083107084036,-10.609177261250355
6,0.0,0.0,25.80824301929,-0.02108379453421,-10.7378883816109
7,0.008000001311302,1.334527041763e-06,25.80824168476,-0.0214027389884,-10.900325458270371
8,0.01099999248981,-7.242022547871e-06,25.80825026131,-0.02133678644896,-10.866736105754088
9,0.01299999654293,-1.02529884316e-05,25.80825327228,-0.02126424759626,-10.829792371439144
10,0.01399999856949,-5.425012204796e-06,25.8082484443,-0.02123802155256,-10.816435557062826
11,0.1145000010729,5.659530870616e-07,25.80824245334,-0.02191240526736,-11.15989636266633
12,0.2150000035763,3.780488623306e-05,25.8082052144,-0.01915109157562,-9.753570847569527
13,0.3154999911785,-9.185288035951e-06,25.80825220458,-0.02098022960126,-10.685143194378986
14,0.4155000001192,0.0002432657929603,25.8079997535,-0.01999310217798,-10.182403325973938
15,0.4749999940395,0.01052435208112,25.79771866721,0.009459321387112,4.817592822572028
16,0.4860000014305,0.02073055505753,25.78751246423,0.002895253710449,1.47454060647395
17,0.4940000027418,0.03080135583878,25.77744166345,0.008067983202636,4.10899010394208
18,0.5004999935627,0.04086452722549,25.76737849207,0.00421916693449,2.1488040747326798
19,0.506500005722,0.05138546228409,25.75685755701,-0.007991679012775,-4.070128699158078
20,0.5119999945164,0.06150585412979,25.74673716516,-0.01873386651278,-9.541079867944527
21,0.5174999982119,0.07163006067276,25.73661295862,-0.02753437310457,-14.023141070492326
22,0.52349999547,0.08206325769424,25.7261797616,-0.04512775689363,-22.983377856865825
23,0.5304999947548,0.09254604578018,25.71569697351,-0.0415972545743,-21.185307790565755
24,0.5384999960661,0.1028724312782,25.70537058801,-0.03848493844271,-19.600218200782734
25,0.5479999929667,0.1129985451698,25.69524447412,-0.04054439812899,-20.649092406126563
26,0.5600000023842,0.1231647133827,25.68507830591,-0.0206126049161,-10.497913479672377
27,0.5715000033379,0.1332088112831,25.67503420801,-0.01255310326815,-6.393242996061115
28,0.582000002265,0.1436534523964,25.66458956689,-0.01586402207613,-8.079480098352132
29,0.5914999991655,0.1538310647011,25.65441195459,-0.01922333985567,-9.790366594449031
30,0.6009999960661,0.1642223000526,25.64402071924,-0.02260363847017,-11.511938542046982
31,0.6104999929667,0.1743465065956,25.6338965127,-0.02531231194735,-12.891454616015332
32,0.6204999983311,0.1844783425331,25.62376467676,-0.0249845944345,-12.724549457270184
33,0.6309999972582,0.1946883797646,25.61355463953,-0.0215780697763,-10.989620695295914
34,0.6414999961853,0.2049461007118,25.60329691858,-0.01910614594817,-9.730680227476617
35,0.6515000015497,0.2149711251259,25.59327189417,-0.01988899335265,-10.129381136627504
36,0.661499992013,0.2251792550087,25.58306376428,-0.01984059438109,-10.104731742821622
37,0.6714999973774,0.2353377938271,25.57290522546,-0.02084076032043,-10.614112072927574
38,0.6815000027418,0.2453437447548,25.56289927454,-0.02022689394653,-10.30147249595451
39,0.6920000016689,0.2556815743446,25.55256144495,-0.01943182758987,-9.8965485255593
40,0.702500000596,0.2659717202187,25.54227129907,-0.01850637607276,-9.42521993823146
41,0.7129999995232,0.2764354348183,25.53180758447,-0.01882255263627,-9.58624733974322
42,0.7230000048876,0.2866168618202,25.52162615747,-0.02001410908997,-10.193102058397313
43,0.7329999953508,0.2968837320805,25.51135928721,-0.02081172540784,-10.599324713372567
44,0.7430000007153,0.3071681559086,25.50107486338,-0.02122040465474,-10.807463344678833
45,0.7529999911785,0.317341953516,25.49090106577,-0.02090480551124,-10.646730020763334
46,0.7635000050068,0.3278209269047,25.48042209239,-0.01919689401984,-9.7768978408601
47,0.7740000039339,0.3381969034672,25.47004611582,-0.0178820155561,-9.107235738238344
48,0.784500002861,0.3485995829105,25.45964343638,-0.01851370558143,-9.42895282634431
49,0.7950000017881,0.3589908182621,25.44925220103,-0.01920371130109,-9.78036985369013
50,0.8055000007153,0.3693782389164,25.43886478037,-0.01861183717847,-9.478930838320046
51,0.8159999996424,0.379784733057,25.42845828623,-0.01933600381017,-9.84774587530329
52,0.8264999985695,0.3901988565922,25.4180441627,-0.01863856986165,-9.492545682064707
53,0.8369999974966,0.4006015360355,25.40764148326,-0.01618905737996,-8.245019219260678
54,0.847000002861,0.4106151163578,25.39762790293,-0.01554299145937,-7.915980547820312
55,0.8569999933243,0.4207088053226,25.38753421397,-0.01507038623095,-7.675284681471137
56,0.8669999986887,0.430752903223,25.37749011607,-0.01433869451284,-7.302637149449991
57,0.8774999976158,0.4412280619144,25.36701495738,-0.01294761151075,-6.594164394142033
58,0.8879999965429,0.4516612589359,25.35658176036,-0.01284776255488,-6.543311738496352
59,0.89849999547,0.4619247019291,25.34631831736,-0.00963244959712,-4.905766295888588
60,0.9089999943972,0.4721595346928,25.3360834846,-0.007193129975349,-3.663431014013685
61,0.9194999933243,0.4825545847416,25.32568843455,-0.006027322728187,-3.0696902585634858
62,0.9294999986887,0.492613941431,25.31562907786,-0.00566877098754,-2.8870813565533315
63,0.9395000040531,0.5027000308037,25.30554298849,-0.003804084379226,-1.9374042652559424
64,0.9494999945164,0.5128013491631,25.29544167013,-0.003703583497554,-1.8862195865257265
65,0.9594999998808,0.5228835940361,25.28535942525,-0.002865095157176,-1.4591809814182757
66,0.9699999988079,0.533366382122,25.27487663717,-0.0005128574557602,-0.26119615739446034
67,0.980499997735,0.5437633991241,25.26447962017,0.001346499775536,0.685766704475782
68,0.9909999966621,0.5541622638702,25.25408075542,0.002611660631374,1.3301078373173516
69,1.001499995589,0.5646221637726,25.24362085552,0.005010389722884,2.5517705318842245
70,1.011999994516,0.5750858783722,25.23315714092,0.007175230421126,3.654314845905743
71,1.022499993443,0.5855762958527,25.22266672344,0.009098314680159,4.633733616489157
72,1.032499998808,0.595605134964,25.21263788433,0.01206328812987,6.143782194593908
73,1.042500004172,0.605729341507,25.20251367778,0.01458718720824,7.429193439994434
74,1.052499994636,0.6159069538116,25.19233606548,0.01596131362021,8.129030274868532
75,1.0625,0.6260960102081,25.18214700908,0.01724931038916,8.785001642755836
76,1.072500005364,0.6361057758331,25.17213724346,0.01834551431239,9.34329371641594
77,1.083000004292,0.6464054584503,25.16183756084,0.02182404138148,11.114893005134778
78,1.093500003219,0.6566021442413,25.15164087505,0.02563587762415,13.056245262023635
79,1.104000002146,0.6668636798859,25.14137933941,0.02877251245081,14.65372026150245
80,1.114500001073,0.6772129535675,25.13103006572,0.03229657560587,16.44851088836907
81,1.125,0.6876690387726,25.12057398052,0.0345505848527,17.596468371274142
82,1.135000005364,0.6976940631866,25.1105489561,0.03469979017973,17.672458020338038
83,1.145500004292,0.7080719470978,25.10017107219,0.0370123013854,18.85021030621893
84,1.156000003219,0.7183525562286,25.08989046306,0.03982421010733,20.282303658597723
85,1.166500002146,0.7287151813507,25.07952783794,0.04344817250967,22.127972554314816
86,1.177000001073,0.7392094135284,25.06903360576,0.04647275060415,23.66837752872748
87,1.186999991536,0.7492611408234,25.05898187847,0.04917546361685,25.044857963063457
88,1.196999996901,0.7593166828156,25.04892633648,0.05197402089834,26.4701514826633
89,1.207000002265,0.7693874835968,25.03885553569,0.05480452626944,27.911716030691217
90,1.216999992728,0.7794926166534,25.02875040264,0.05642231553793,28.735649339367075
91,1.226999998093,0.789567232132,25.01867578716,0.05787505954504,29.475525786658864
92,1.237000003457,0.7995983362198,25.00864468307,0.06208243221045,31.61832308947398
93,1.24699999392,0.8097072839737,24.99853573532,0.06483944505453,33.02245820084415
94,1.256999999285,0.8198200464249,24.98842297287,0.06747540086508,34.36493947131082
95,1.267000004649,0.8298527002335,24.97839031906,0.0709935054183,36.15669540717984
96,1.276999995112,0.8398891687393,24.96835385055,0.07516487687826,38.28115744662013
97,1.287000000477,0.8499828577042,24.95826016159,0.07705970853567,39.24618728535232
98,1.297000005841,0.8600383996964,24.94820461959,0.07954689115286,40.512898990626
99,1.307500004768,0.8704715967178,24.93777142257,0.08329626172781,42.42243774418311
100,1.318000003695,0.8808361291885,24.9274068901,0.08768220990896,44.65618281034288
101,1.328500002623,0.8912006616592,24.91704235763,0.09073635190725,46.2116445573266
102,1.33900000155,0.9016796350479,24.90656338424,0.09424301236868,47.99757206510737
103,1.348999992013,0.9118305444717,24.89641247482,0.09655471891165,49.17491453964034
104,1.358999997377,0.92203104496,24.88621197433,0.09950872510672,50.67937754082265
105,1.369000002742,0.9321514368057,24.87609158249,0.1017915830016,51.842027519531484
106,1.379500001669,0.9426418542862,24.865601165,0.1062557324767,54.115600177653896
107,1.390000000596,0.952979683876,24.85526333541,0.1103994473815,56.225976849213836
108,1.400499999523,0.963275551796,24.84496746749,0.1140911206603,58.10613061113795
109,1.41099999845,0.9736515283585,24.83459149093,0.1167442128062,59.45733934553241
110,1.421000003815,0.9836956262589,24.82454739303,0.120176486671,61.205382070742154
111,1.430999994278,0.9938045740128,24.81443844528,0.1219229027629,62.09482448264972
112,1.441499993205,1.00429880619,24.8039442131,0.1265835165977,64.46845561753258
113,1.451999992132,1.01452600956,24.79371700973,0.1315912604332,67.0188786100375
114,1.46250000596,1.024650216103,24.78359280319,0.1364578604698,69.497417656041
115,1.473000004888,1.034835457802,24.77340756149,0.1397594809532,71.17891916051
116,1.483500003815,1.04524731636,24.76299570293,0.1428083181381,72.73167918821949
117,1.493499994278,1.055341005325,24.75290201397,0.1440036296844,73.34044635983057
118,1.503499999642,1.065541505814,24.74270151348,0.1463204622269,74.52039948448669
119,1.513500005007,1.075680971146,24.73256204815,0.1483767032623,75.56763444439808
120,1.524000003934,1.086070299149,24.72217272014,0.1534750461578,78.16419915926613
121,1.534500002861,1.096265077591,24.7119779417,0.1586821079254,80.8161339410209
122,1.545000001788,1.106574296951,24.70166872234,0.163741350174,83.39278485994583
123,1.555500000715,1.117057085037,24.69118593425,0.1645021140575,83.78023872421724
124,1.565999999642,1.127558946609,24.68068407268,0.1679572761059,85.53993830561365
125,1.576000005007,1.137606859207,24.67063616008,0.1713714301586,87.27875268629984
126,1.58599999547,1.14768910408,24.66055391521,0.1746673285961,88.95733997672217
127,1.596000000834,1.1577064991,24.65053652019,0.1776213347912,90.46180297791975
128,1.606499999762,1.168162584305,24.64008043499,0.1827892959118,93.09382396368045
129,1.616999998689,1.178653001785,24.62959001751,0.1862816512585,94.87246593635474
130,1.627000004053,1.188655138016,24.61958788128,0.1894774138927,96.50005448093493
131,1.636999994516,1.198657274246,24.60958574504,0.193679779768,98.64030184648595
132,1.646999999881,1.208743333817,24.59949968547,0.1980724036694,100.87744682905048
133,1.657000005245,1.218913316727,24.58932970256,0.2013163268566,102.52956334186104
134,1.666999995708,1.229113817215,24.57912920208,0.205519169569,104.6700535585529
135,1.677000001073,1.239272356033,24.56897066326,0.2088560760021,106.36952604963453
136,1.686999991536,1.249312639236,24.55893038005,0.2116546332836,107.79481956923946
137,1.697500005364,1.259642839432,24.54860017986,0.21593567729,109.97513737791944
138,1.708000004292,1.269879579544,24.53836343975,0.2217216193676,112.92189348061841
139,1.718500003219,1.280225038528,24.52801798076,0.2258448302746,115.02182755184872
140,1.729000002146,1.290694355965,24.51754866333,0.2296515703201,116.96058433683173
141,1.738999992609,1.300711750984,24.50753126831,0.2333580255508,118.84826648503882
142,1.748999997973,1.310713887215,24.49752913208,0.2369629144669,120.68422133398121
143,1.759499996901,1.321185231209,24.48705778808,0.2410465478897,122.76399875802568
144,1.769999995828,1.3316603899,24.47658262939,0.2453342676163,124.94771648308495
145,1.780499994755,1.342139363289,24.466103656,0.248394370079,126.50621386966539
146,1.790500000119,1.352164387703,24.45607863159,0.2526191473007,128.6578752402113
147,1.800999999046,1.362654805183,24.44558821411,0.2576144933701,131.20198410229028
148,1.811499997973,1.373034596443,24.43520842285,0.2617238759995,133.29487548957022
149,1.821999996901,1.383395314217,24.42484770507,0.2649763822556,134.95136332347622
150,1.832499995828,1.393786549568,24.41445646972,0.2685483694077,136.77056144161207
151,1.842999994755,1.40417778492,24.40406523437,0.2722972631454,138.67985734395194
152,1.853499993682,1.414641499519,24.39360151977,0.275334239006,140.22657644880076
153,1.863499999046,1.424697041512,24.38354597778,0.277965426445,141.56662920757884
154,1.873999997973,1.435198903084,24.37304411621,0.2828253507614,144.04176833720302
155,1.884000003338,1.44523537159,24.3630076477,0.2875746488571,146.4605659952753
156,1.893999993801,1.455485463142,24.35275755615,0.2908467054367,148.12701072717834
157,1.903999999166,1.465914845467,24.34232817382,0.2935436964035,149.50057694746764
158,1.91400000453,1.476294636726,24.33194838256,0.2964683771133,150.99010460164422
159,1.923999994993,1.486567616463,24.32167540283,0.3007646799088,153.17819364779896
160,1.934000000358,1.496672749519,24.31157026977,0.3045445680618,155.1032748762292
161,1.944499999285,1.507086873055,24.30115614624,0.3093730211258,157.56238582862218
162,1.954999998212,1.517439961433,24.29080305786,0.3154193162918,160.64173867041907
163,1.965000003576,1.527487874031,24.28075514526,0.3182066679001,162.06132518752656
164,1.97499999404,1.537646412849,24.27059660644,0.3196626901627,162.8028712366294
165,1.984999999404,1.547815799713,24.26042721958,0.3224183619022,164.20632332904563
166,1.995000004768,1.557894229889,24.2503487894,0.3258859217167,165.97233704086798
167,2.005500003695,1.568281650543,24.23996136875,0.3299895823002,168.06231421410124
168,2.016000002623,1.578548908234,24.22969411106,0.3363210260868,171.28689205584797
169,2.02650000155,1.58890581131,24.21933720798,0.3419782221317,174.1680783425224
170,2.036499992013,1.598927021027,24.20931599826,0.3450790941715,175.7473395042172
171,2.046499997377,1.608986377716,24.19925664157,0.348206192255,177.3399574802883
172,2.056500002742,1.619015216827,24.18922780246,0.3524414598942,179.4969615765949
173,2.067000001669,1.629513263702,24.17872975559,0.3564039766788,181.51505480332673
174,2.077500000596,1.639992237091,24.1682507822,0.3606659471989,183.68565856520146
175,2.087999999523,1.650421619415,24.15782139988,0.3645721971989,185.67509535385014
176,2.09849999845,1.660839557648,24.14740346164,0.3689352571964,187.8971835637978
177,2.108999997377,1.671303272247,24.13693974704,0.3721767961979,189.54808582080224
178,2.119499996305,1.681774616241,24.12646840305,0.3765245974064,191.76240279332603
179,2.129500001669,1.691799640656,24.11644337864,0.3790751993656,193.06141370425902
180,2.140000000596,1.70227098465,24.10597203464,0.3839875757694,195.56326646263585
181,2.150499999523,1.712700366974,24.09554265232,0.3881074488163,197.66150057567648
182,2.16099999845,1.723122119904,24.08512089939,0.3919178545475,199.60212427905623
183,2.171499997377,1.733570575714,24.07467244358,0.3946858942509,201.01187532376258
184,2.181999996305,1.744060993195,24.0641820261,0.3989831507206,203.200450072199
185,2.192000001669,1.754215717316,24.05402730198,0.4016143381596,204.54050283097712
186,2.201999992132,1.764431476593,24.0438115427,0.4048492014408,206.18800517155134
187,2.211999997497,1.774651050568,24.03359196872,0.4080015718937,207.79349425966612
188,2.222000002861,1.784729480743,24.02351353855,0.4129854738712,210.33177469360083
189,2.232500001788,1.795198321342,24.01304469795,0.4180168807507,212.8942491754536
190,2.243000000715,1.805646777153,24.00259624214,0.4225315749645,215.1935640576125
191,2.252999991179,1.815671801567,23.99257121772,0.4260334670544,216.97706305371486
192,2.262999996543,1.825742602348,23.98250041694,0.4297465980053,218.86814511830124
193,2.273000001907,1.835828661919,23.97241435737,0.4327768981457,220.41146430677074
194,2.282999992371,1.845876574516,23.96236644477,0.4376473128796,222.89194616215568
195,2.292999997735,1.855893969536,23.95234904976,0.4410209357738,224.61011819332342
196,2.303000003099,1.865934252739,23.94230876655,0.4451017081738,226.68843851042092
197,2.312999993563,1.876050829887,23.9321921894,0.4477135837078,228.01865579674697
198,2.322999998927,1.886197924614,23.92204509468,0.4502117335796,229.2909530789273
199,2.333000004292,1.896299242973,23.91194377632,0.4535295665264,230.98071152320367
200,2.343500003219,1.906705737114,23.90153728218,0.4586560428143,233.59160445716424
201,2.354000002146,1.916971087456,23.89127193184,0.4640252292156,236.32610863684002
202,2.364500001073,1.927282214165,23.88096080513,0.4708668887615,239.8105372310219
203,2.374499991536,1.937288165092,23.8709548542,0.475100249052,241.96656992261234
204,2.384499996901,1.947473406792,23.8607696125,0.4757348299026,242.28975929593858
205,2.394500002265,1.95767390728,23.85056911201,0.4774644374847,243.17064120409998
206,2.404499992728,1.967706561089,23.8405364582,0.4804411530495,244.6866699923128
207,2.414999991655,1.977992892265,23.83025012703,0.4842672944069,246.6353077843081
208,2.425500005484,1.988172411919,23.82007060737,0.4899569153786,249.5330079505973
209,2.436000004411,1.998481631279,23.80976138801,0.4959831833839,252.6021610432054
210,2.445999994874,2.008575439453,23.79966757984,0.5005159974098,254.91070426988784
211,2.456000000238,2.018867492676,23.78937552662,0.5038037896156,256.58516309040647
212,2.466000005603,2.029159545898,23.77908347339,0.5065322518349,257.97475748797797
213,2.475999996066,2.039279937744,23.76896308155,0.5094566941261,259.4641637165586
214,2.486499994993,2.049706459045,23.75853656025,0.5147575736046,262.1638794661191
215,2.49699999392,2.060086250305,23.74815676899,0.5203537344933,265.0139808029964
216,2.507499992847,2.070569038391,23.7376739809,0.5241102576256,266.92716232409913
217,2.517499998212,2.080666542053,23.72757647724,0.5279373526573,268.87628581842705
218,2.527500003576,2.090847969055,23.71739505024,0.5314406752586,270.66051336800285
219,2.53749999404,2.101071357727,23.70717166156,0.5344623923302,272.19946123542786
220,2.547499999404,2.111222267151,23.69702075214,0.5367349982262,273.35688991398206
221,2.557500004768,2.121254920959,23.68698809833,0.5417999625206,275.9364550469028
222,2.568000003695,2.131718635559,23.67652438373,0.5460438132286,278.0978304642539
223,2.578500002623,2.142205238342,23.66603778095,0.5503324866295,280.2820338916458
224,2.58900000155,2.152703285217,23.65553973407,0.5534166693687,281.8527952623415
225,2.599500000477,2.163151741028,23.64509127826,0.5572866797447,283.8237753620449
226,2.609999999404,2.173607826233,23.63463519306,0.5600766539574,285.2446975606053
227,2.620499998331,2.184067726135,23.62417529316,0.5642690062523,287.37984505153645
228,2.630999997258,2.194542884827,23.61370013446,0.5693044066429,289.9443534118912
229,2.641000002623,2.204609870911,23.60363314838,0.5732707381248,291.9643894480044
230,2.650999993086,2.214730262756,23.59351275653,0.5764026045799,293.5594359357895
231,2.66099999845,2.224804878235,23.58343814106,0.5799102187157,295.3458491459386
232,2.671000003815,2.234837532043,23.57340548725,0.5828451514244,296.84059810028
233,2.681500002742,2.245285987854,23.56295703144,0.5867375731468,298.82299220497833
234,2.692000001669,2.255681037903,23.55256198139,0.5916890501976,301.3447587593492
235,2.702500000596,2.266133308411,23.54210971088,0.5965022444725,303.7960984742674
236,2.71250000596,2.276200294495,23.5320427248,0.6014422774315,306.312036600545
237,2.722499996424,2.286332130432,23.52191088886,0.6054372191429,308.3466437068916
