,time,travel,position,force,stress
0,0.0,0.0,20.07456771558,-0.007288905326277,-5.261067176443667
1,0.0,0.0,20.07456755911,-0.007258596364409,-5.239190436755341
2,0.0,0.0,20.07455829804,-0.007642070297152,-5.515978518129207
3,0.0,0.0,20.07454963302,-0.007444259244949,-5.373200256195799
4,0.0,0.0,20.07454917481,-0.007471617776901,-5.392947401755429
5,0.0,0.0,20.1220073674,-0.007516355253756,-5.425238515510225
6,0.0,0.0,20.12199783221,-0.00707480404526,-5.106530771925923
7,0.008000000000266,-1.102143141907e-05,20.12200885365,-0.007336885668337,-5.295698961523436
8,0.01099999999997,-1.545452687424e-05,20.12201328674,-0.007666380144656,-5.533525150310939
9,0.01299999999992,-1.811810943764e-05,20.12201595032,-0.007867367006838,-5.678595683702299
10,0.01400000000012,-2.050229522865e-05,20.12201833451,-0.007915408350527,-5.713271499216497
11,0.114,4.180251198704e-05,20.1219560297,-0.006913211196661,-4.989894487922154
12,0.2139999999999,1.918673842738e-05,20.12197864548,-0.006455235183239,-4.65933146591022
13,0.3140000000003,4.51259984402e-05,20.12195270622,-0.008314804174006,-6.00155186001895
14,0.4050000000002,0.01040495932102,20.11159287289,0.03265147283673,23.567543316083125
15,0.413,0.02063597738743,20.10136185483,0.07568125426769,54.626057669376245
16,0.4180000000001,0.03121413290501,20.09078369931,0.08346800506115,60.24646528572045
17,0.422,0.04202498495579,20.07997284726,0.08695654571056,62.76446296613138
18,0.4255000000003,0.05311049520969,20.068887337,0.09625296294689,69.47453442285072
19,0.4285,0.06389082968235,20.05810700253,0.1124425381422,81.1600261185039
20,0.4315000000001,0.07598342001438,20.0460144122,0.1309819668531,94.54162122707325
21,0.4340000000002,0.08718337118626,20.03481446103,0.1422276943922,102.65868756046291
22,0.4365000000003,0.09940566122532,20.02259217099,0.1475682705641,106.51346804443875
23,0.4385000000002,0.1099037081003,20.01209412411,0.148073002696,106.8777792178138
24,0.4405000000002,0.1209663301706,20.00103150204,0.1467063874006,105.89136842612263
25,0.4425000000001,0.1325630098581,19.98943482236,0.144543454051,104.33018233012649
26,0.4445000000001,0.1446327120066,19.97736512021,0.142683789134,102.98789269731412
27,0.4465,0.1570991426706,19.96489868954,0.1400821655989,101.11006391874098
28,0.4485,0.1699317842722,19.95206604794,0.1380050629377,99.61082965189604
29,0.4504999999999,0.1830238252878,19.93897400693,0.1380957812071,99.67630929363641
30,0.4525000000003,0.1963600069284,19.92563782529,0.1387478560209,100.14697110716021
31,0.4540000000002,0.2064765840769,19.91552124814,0.1382400244474,99.78042278434542
32,0.4555,0.2166541963816,19.90534363583,0.1376201361418,99.3329929067894
33,0.4570000000003,0.2268470674753,19.89515076474,0.137727662921,99.41060478173014
34,0.4585000000002,0.2370704561472,19.88492737607,0.1375357359648,99.27207360807114
35,0.46,0.24727858603,19.87471924618,0.1363169401884,98.39235763331564
36,0.4615000000003,0.2574409544468,19.86455687777,0.1350523680449,97.47960068304654
37,0.4630000000002,0.2675270140171,19.8544708182,0.1354042738676,97.73360318275414
38,0.4645,0.2775367796421,19.84446105257,0.1390587538481,100.37137439965639
39,0.4665,0.2907356321812,19.83126220003,0.1488854140043,107.46417049010267
40,0.4684999999999,0.3038124144077,19.81818541781,0.1604210585356,115.79049633548763
41,0.4705000000004,0.3167823851109,19.8052154471,0.1720482558012,124.18290413197204
42,0.4725000000003,0.3296302855015,19.79236754671,0.1837822645903,132.6524075381807
43,0.4745000000003,0.3423713743687,19.77962645784,0.193730995059,139.83331289683173
44,0.4765000000002,0.3550209105015,19.76697692171,0.1995979994535,144.0680645999
45,0.4785000000002,0.3675178587437,19.75447997347,0.202109977603,145.8811881347379
46,0.4805000000001,0.379816442728,19.74218138949,0.2036873549223,147.0197250847952
47,0.4825000000001,0.3918556272984,19.73014220492,0.2075134962797,149.78139996007204
48,0.4845,0.4035896360874,19.71840819613,0.2148911207914,155.10650385718307
49,0.4865,0.4150184690952,19.70697936312,0.226991340518,163.840335068006
50,0.4884999999999,0.4261726438999,19.69582518831,0.2429825514555,175.38264920282825
51,0.4905000000003,0.4370826780796,19.68491515413,0.2608048319817,188.24661311627568
52,0.4925000000003,0.4477943480015,19.67420348421,0.2794815897942,201.7273311516024
53,0.4945000000002,0.4583686888218,19.66362914339,0.2974869608879,214.72344821176696
54,0.4965000000002,0.4688362181187,19.65316161409,0.3140274882317,226.6622540535467
55,0.4985000000001,0.4792274534702,19.64277037874,0.3279740214348,236.7287379459213
56,0.5005000000001,0.4895881712437,19.63240966097,0.340242087841,245.58371940046263
57,0.5025000000001,0.4998878538609,19.62210997835,0.352449119091,254.3946462209376
58,0.5045,0.5101722478867,19.61182558433,0.364885032177,263.37077791934166
59,0.5065,0.5204414129257,19.60155641929,0.3768021464348,271.9724452278213
60,0.5085000000004,0.5306800603867,19.59131777183,0.3885514140129,280.45296229251045
61,0.5105000000003,0.5409187078476,19.58107912437,0.4002549052238,288.9004383816138
62,0.5125000000003,0.5511573553085,19.57084047691,0.412019431591,297.3919691048556
63,0.5145000000002,0.5613654851913,19.56063234702,0.423494040966,305.6742403161021
64,0.5165000000002,0.5715736150742,19.55042421714,0.4341599345207,313.3727876255012
65,0.5185000000001,0.581781744957,19.54021608726,0.4449936747551,321.1924851786908
66,0.5205000000001,0.5919746160507,19.53002321616,0.4554917216301,328.76988224429925
67,0.5225,0.6021522283554,19.51984560386,0.465486228466,335.98382857853613
68,0.5245,0.612314581871,19.50968325034,0.4757553935051,343.3960207662878
69,0.5264999999999,0.6224349737167,19.4995628585,0.4870184063911,351.5255635096647
70,0.5285000000003,0.632521033287,19.48947679893,0.4989660382271,360.14925813524974
71,0.5305000000003,0.6425765752792,19.47942125693,0.510898411274,368.7619391022821
72,0.5325000000003,0.6526168584824,19.46938097373,0.5229528546333,377.462729337447
73,0.5345000000002,0.6626266241074,19.45937120811,0.5352209210396,386.31771079206044
74,0.5370000000003,0.6751235723495,19.44687425986,0.5498846173286,396.90183663511095
75,0.5395000000003,0.6875900030136,19.4344078292,0.5644720196724,407.4308941856147
76,0.5419999999999,0.7000564336777,19.42194139854,0.5798376202583,418.5216483208605
77,0.5445,0.7125228643417,19.40947496787,0.595126926899,429.55733416355963
78,0.547,0.7249740362167,19.397023796,0.6105993390083,440.7251839084575
79,0.5495000000001,0.7374404668808,19.38455736533,0.626880466938,452.4767575552751
80,0.5520000000001,0.7499068975449,19.37209093467,0.6425512433052,463.78778486106887
81,0.5545000000002,0.762388586998,19.35960924522,0.6571233868599,474.30582875301997
82,0.5570000000002,0.7748702764511,19.34712755576,0.6728094220161,485.6278697172942
83,0.5595000000003,0.7873367071152,19.3346611251,0.689365208149,497.57768921762664
84,0.5615000000003,0.7973464727402,19.32465135947,0.702304661274,506.91727164733015
85,0.5640000000003,0.8098281621933,19.31216967002,0.7180059552193,518.2503262701571
86,0.5665000000004,0.8222945928574,19.29970323936,0.7341039776802,529.8697360146314
87,0.569,0.8347610235214,19.28723680869,0.750659763813,541.8195555148916
88,0.5715,0.8472274541855,19.27477037803,0.7676580548286,554.088771112385
89,0.5740000000001,0.8597091436386,19.26228868857,0.7839391827583,565.8403447592025
90,0.576,0.8697189092636,19.25227892295,0.7967718243599,575.1028315792539
91,0.578,0.8797286748886,19.24226915732,0.809497654438,584.2882227895811
92,0.5799999999999,0.8897384405136,19.2322593917,0.8225591778755,593.7159144874894
93,0.5820000000003,0.8997482061386,19.22224962607,0.8352697491646,602.890292039336
94,0.5840000000003,0.9097579717636,19.21223986045,0.847568333149,611.7673008109826
95,0.5860000000002,0.9197829961777,19.20221483604,0.8599279522896,620.6883642166955
96,0.5880000000002,0.9297927618027,19.19220507041,0.8724249005318,629.7085505491658
97,0.5900000000001,0.9398025274277,19.18219530479,0.8848760724068,638.6956959060503
98,0.5925000000002,0.9522994756699,19.16969835654,0.900562107563,650.0177368703246
99,0.5950000000003,0.9647659063339,19.15723192588,0.9168737530708,661.7913378341754
100,0.5975000000003,0.9772018194199,19.14479601279,0.9336279034615,673.8843348953314
101,0.6000000000004,0.9896072149277,19.13239061729,0.9504125714302,685.9993592734484
102,0.6025,1.001982092857,19.12001573936,0.9675787091255,698.3897251147324
103,0.605,1.014326453209,19.107671379,0.9847143292427,710.7580636389831
104,0.6075000000001,1.02667081356,19.09532701865,1.000842809677,722.3994576783471
105,0.6100000000001,1.038969397545,19.08302843467,1.01691031456,733.9968401059327
106,0.6125000000002,1.051237463951,19.07076036826,1.034061193466,746.3761922885196
107,0.6150000000002,1.063505530357,19.05849230186,1.051913976669,759.2621727633741
108,0.6175000000003,1.075758337975,19.04623949424,1.069751501083,772.1371395797482
109,0.6200000000003,1.088011145592,19.03398668662,1.086932897568,784.5385190800177
110,0.6224999999999,1.100263953209,19.021733879,1.103900671005,796.785707360117
111,0.625,1.112516760826,19.00948107139,1.121249914169,809.3082371036721
112,0.6275000000001,1.124769568443,18.99722826377,1.138782262802,821.9629307497146
113,0.6300000000001,1.137052893639,18.98494493857,1.156253576279,834.5735697618354
114,0.6325000000002,1.149336218834,18.97266161338,1.173923254013,847.3273863342022
115,0.6350000000002,1.161634802818,18.9603630294,1.191470861435,859.9930936387253
116,0.6375000000003,1.173963904381,18.94803392783,1.209094762802,872.7138692356506
117,0.6400000000003,1.186293005943,18.93570482627,1.227466344833,885.9743141002853
118,0.6424999999999,1.198683142662,18.92331468955,1.246326208115,899.5871960384603
119,0.645,1.211103796959,18.91089403525,1.263965368271,912.3189852938663
120,0.6475,1.223554968834,18.89844286338,1.280521154404,924.2688047942709
121,0.6500000000001,1.236021399498,18.88597643272,1.296771764755,935.9983511236221
122,0.6525000000001,1.248503088951,18.87349474326,1.313251256943,947.8931023316243
123,0.6550000000002,1.261000037193,18.86099779502,1.32989859581,959.9090037829118
124,0.6575000000003,1.273481726646,18.84851610557,1.346759557724,972.0790964536477
125,0.6600000000003,1.2859634161,18.83603441611,1.364551305771,984.9210222945802
126,0.6625000000004,1.298460364342,18.82353746787,1.382037878036,997.5426749644597
127,0.665,1.310942053795,18.81105577842,1.399158239365,1009.8999998308074
128,0.6675,1.323423743248,18.79857408897,1.416248083115,1022.2352973794723
129,0.6700000000001,1.335905432701,18.78609239951,1.433688879013,1034.8239090739103
130,0.6725000000001,1.348356604576,18.77364122764,1.451236486435,1047.4896163784333
131,0.6750000000002,1.360792517662,18.76120531455,1.46922659874,1060.4747197803338
132,0.6775000000002,1.373213171959,18.74878466025,1.487170934677,1073.4267822060713
133,0.6800000000003,1.385618567467,18.73637926475,1.505176305771,1086.4228992664523
134,0.6825000000003,1.398008704185,18.72398912803,1.523608922958,1099.7273987650087
135,0.6849999999999,1.410383582115,18.7116142501,1.542377233505,1113.2741987515792
136,0.6875,1.422758460045,18.69923937217,1.560779333115,1126.5566709338964
137,0.6900000000001,1.435133337975,18.68686449424,1.578342199326,1139.2333918969
138,0.6925000000001,1.447477698326,18.67452013389,1.595950841904,1151.943153835345
139,0.6950000000002,1.459806799889,18.66219103232,1.614475011826,1165.313735285506
140,0.6975000000002,1.472135901451,18.64986193076,1.634067296982,1179.4552728321878
141,0.7000000000003,1.484480261803,18.63751757041,1.653964757919,1193.8170835492012
142,0.7025000000003,1.496870398521,18.62512743369,1.673236608505,1207.7273342670712
143,0.7049999999999,1.509291052818,18.6127067794,1.691821813583,1221.1419703511542
144,0.7075,1.521742224693,18.60025560752,1.709811925888,1234.1270737530547
145,0.71,1.534208655357,18.58778917686,1.727313756943,1246.7597400821364
146,0.7125000000001,1.54669034481,18.5753074874,1.744998693466,1259.5245703129838
147,0.7150000000001,1.559187293053,18.56281053916,1.762546300888,1272.1902776175068
148,0.7175000000002,1.571684241295,18.55031359092,1.781009435654,1285.5168044337458
149,0.7200000000003,1.584165930748,18.53783190147,1.799487829208,1298.8543449077438
150,0.7220000000002,1.594175696373,18.52782213584,1.814227819443,1309.4935390439184
151,0.7245000000003,1.606657385826,18.51534044639,1.832156896591,1322.4345878111753
152,0.7270000000003,1.619154334068,18.50284349815,1.849857091904,1335.210431701225
153,0.7294999999999,1.631620764732,18.49037706748,1.86749625206,1347.9422209566308
154,0.732,1.644087195396,18.47791063682,1.885532140732,1360.960365333973
155,0.7345,1.65655362606,18.46544420615,1.903827428818,1374.1657419062049
156,0.7370000000001,1.669004797935,18.45299303428,1.922382116318,1387.558350673327
157,0.7395000000001,1.68145596981,18.4405418624,1.94171500206,1401.5126560251188
158,0.7420000000002,1.693907141685,18.42809069053,1.960773229599,1415.2687155235403
159,0.7445000000002,1.70637357235,18.41562425986,1.979816198349,1429.0137613634813
160,0.7470000000003,1.718840003014,18.4031578292,1.999179601669,1442.9900940322343
161,0.7495000000004,1.731306433678,18.39069139854,2.018420934677,1456.8783174331434
162,0.752,1.743772864342,18.37822496787,2.038043737411,1471.041882296786
163,0.7545,1.756254553795,18.36574327842,2.058337926865,1485.6900481364576
164,0.7570000000001,1.768736243248,18.35326158897,2.078815221786,1500.4703778771725
165,0.7595000000001,1.78123319149,18.34076464072,2.098651647568,1514.7881339609858
166,0.7615000000001,1.791258215904,18.33073961631,2.114032506943,1525.8899017547844
167,0.7635,1.801298499107,18.32069933311,2.12987112999,1537.322079304441
168,0.7655,1.8113540411,18.31064379111,2.145374059677,1548.5119563660835
169,0.7674999999999,1.821409583092,18.30058824912,2.160541296005,1559.4595329404333
170,0.7695000000003,1.831495642662,18.29050218955,2.175845861435,1570.5062324418293
171,0.7715000000003,1.841596961021,18.28040087119,2.191425085068,1581.7511777965958
172,0.7735000000002,1.851683020592,18.27031481162,2.207065343857,1593.0401777852842
173,0.7755000000002,1.861814856529,18.26018297568,2.222675085068,1604.3071504570119
174,0.7775000000001,1.871946454048,18.25005137817,2.238301038742,1615.5858251406496
175,0.7795000000001,1.882063031197,18.23993480102,2.253849744797,1626.808743178455
176,0.7815000000001,1.892179608345,18.22981822387,2.269367933273,1638.009633898578
177,0.7835,1.902296185493,18.21970164672,2.28488612175,1649.2105246194226
178,0.7855,1.912412762642,18.20958506957,2.300663709641,1660.598647535157
179,0.7875000000004,1.922544598579,18.19945323363,2.316349744797,1671.9206884992868
180,0.7895000000003,1.932661175728,18.18933665649,2.332005262375,1683.220702146456
181,0.7915000000003,1.942777752876,18.17922007934,2.347340345383,1694.289428964813
182,0.7935000000002,1.952909588814,18.1690882434,2.362614393234,1705.314101148526
183,0.7955000000002,1.963026165962,18.15897166625,2.37733912468,1715.9422816262206
184,0.7975000000001,1.973127484322,18.14887034789,2.391743421555,1726.3391752743812
185,0.7995000000001,1.983198285103,18.13879954711,2.406437635422,1736.9453284343924
186,0.8015,1.993269085884,18.12872874633,2.421421766281,1747.760741106255
187,0.8035,2.003293991089,18.11870384112,2.436756849289,1758.829467924612
188,0.8054999999999,2.013303756714,18.1086940755,2.452381849289,1770.10745425482
189,0.808,2.025785446167,18.09621238605,2.472401380539,1784.557374240399
190,0.8105,2.038236618042,18.08376121417,2.49306178093,1799.4698678843238
191,0.8130000000001,2.050657272339,18.07134055987,2.513294935226,1814.0739790886291
192,0.8155000000002,2.063077926636,18.05891990558,2.533772230148,1828.8543088300664
193,0.8180000000002,2.075468063354,18.04652976886,2.554646253586,1843.9209936934396
194,0.8205000000003,2.087842941284,18.03415489093,2.575947523117,1859.296060994988
195,0.8230000000003,2.100248336792,18.02174949542,2.596821546555,1874.3627458583612
196,0.8254999999999,2.112638473511,18.0093593587,2.617542982101,1889.3192941354857
197,0.828,2.125059127808,17.99693870441,2.638172864914,1904.2097604624494
198,0.8305,2.137510299683,17.98448753253,2.658711194992,1919.0341448378085
199,0.8330000000001,2.149976730347,17.97202110187,2.678791761398,1933.5281194573095
200,0.8355000000001,2.162473678589,17.95952415362,2.698902845383,1948.044121394493
201,0.8380000000002,2.174970626831,17.94702720538,2.71928858757,1962.7583691843254
202,0.8400000000001,2.184995651245,17.93700218097,2.735554456711,1974.4989291728791
203,0.8420000000001,2.19500541687,17.92699241534,2.751698255539,1986.151379892867
204,0.8440000000001,2.205045700073,17.91695213214,2.767781019211,1997.7597759789332
205,0.846,2.215070724487,17.90692710773,2.784413099289,2009.7646637717398
206,0.848,2.225126266479,17.89687156573,2.80083155632,2021.6153603450985
207,0.8500000000004,2.235181808472,17.88681602374,2.816853284836,2033.1797017972426
208,0.8520000000003,2.245252609253,17.87674522296,2.832783460617,2044.677961297782
209,0.8540000000003,2.255338668823,17.86665916339,2.848744153976,2056.1982481152822
210,0.8560000000002,2.265439987183,17.85655784503,2.864857435226,2067.8286715183094
211,0.8580000000002,2.275541305542,17.84645652667,2.881153821945,2079.591258823824
212,0.8600000000001,2.285642623901,17.83635520831,2.89751124382,2091.39790076326
213,0.8620000000001,2.29575920105,17.82623863116,2.91411280632,2103.3807612391065
214,0.864,2.305875778198,17.81612205402,2.930866956711,2115.473758300479
215,0.866,2.316007614136,17.80599021808,2.947376966476,2127.39053682472
216,0.8679999999999,2.326139450073,17.79585838214,2.963185071945,2138.800687057416
217,0.8700000000003,2.336271286011,17.7857265462,2.978718519211,2150.0125914367413
218,0.8720000000003,2.346418380737,17.77557945148,2.99467921257,2161.5328782542415
219,0.8740000000003,2.356550216675,17.76544761554,3.011341810226,2173.5597933640092
220,0.8760000000002,2.366682052612,17.7553157796,3.028523206711,2185.961172864279
221,0.8780000000002,2.376798629761,17.74519920245,3.045582532883,2198.274443095983
222,0.8800000000001,2.386930465698,17.73506736652,3.06288599968,2210.763931864097
223,0.8820000000001,2.397062301636,17.72493553058,3.080281019211,2223.3195025830933
224,0.884,2.407194137573,17.71480369464,3.097828626633,2235.985209887616
225,0.886,2.417325973511,17.7046718587,3.115162611008,2248.4967259726905
226,0.8879999999999,2.427473068237,17.69452476398,3.131977796555,2260.633777667985
227,0.8900000000003,2.437604904175,17.68439292804,3.148670911789,2272.682720094714
228,0.8920000000003,2.447751998901,17.67424583331,3.16606593132,2285.2382908137106
229,0.8940000000002,2.457914352417,17.6640834798,3.183796644211,2298.0361620207213
230,0.8960000000002,2.468091964722,17.65390586749,3.201252698898,2310.6357873736397
231,0.8980000000001,2.478284835815,17.6437129964,3.218708753586,2323.2354127272797
232,0.9000000000001,2.488492965698,17.63350486652,3.236408948898,2336.0112566166076
233,0.902,2.498701095581,17.62329673663,3.253651380539,2348.4566907507988
234,0.904,2.508909225464,17.61308860675,3.270100355148,2360.3294146411185
235,0.9059999999999,2.519117355347,17.60288047687,3.28667140007,2372.2902478000033
236,0.9080000000004,2.529325485229,17.59267234698,3.303364515305,2384.3391902274543
237,0.9100000000003,2.539533615112,17.5824642171,3.319782972336,2396.189886800813
238,0.9120000000003,2.549726486206,17.57227134601,3.336048841476,2407.9304467886445
239,0.9140000000002,2.5599193573,17.56207847491,3.352558851242,2419.8472253136074
240,0.9160000000002,2.570081710815,17.5519161214,3.369709730148,2432.2265774961947
241,0.9180000000001,2.580228805542,17.54176902667,3.387409925461,2445.0024213862444
242,0.9200000000001,2.590360641479,17.53163719073,3.405079603195,2457.756237958611
243,0.922,2.600477218628,17.52152061359,3.422566175461,2470.3778906292123
244,0.924,2.610563278198,17.51143455402,3.439564466476,2482.647106226272
245,0.9259999999999,2.620634078979,17.50136375323,3.456562757492,2494.9163218240546
