,time,travel,position,force,stress
0,0.0,0.0,21.1454946542,-0.01047935616225,-5.791115741814589
1,0.0,0.0,21.14549024345,-0.01049729716033,-5.801030320038318
2,0.0,0.0,21.14548592212,-0.00954086240381,-5.272484072659668
3,0.0,0.0,21.14548411907,-0.009629449807107,-5.321439361306865
4,0.0,0.0,21.14548164548,-0.009708843193948,-5.365313840350449
5,0.0,0.0,21.28520222337,-0.008509702980518,-4.702643380532202
6,0.0,0.0,21.28519268271,-0.008989877998829,-4.967998337870527
7,0.008000001311302,5.68013638258e-06,21.28518700258,-0.009494133293629,-5.246660569633307
8,0.01100000739098,-9.03382897377e-08,21.28519277305,-0.009452499449253,-5.2236528191737275
9,0.01300001144409,-6.233341991901e-06,21.28519891606,-0.009662307798862,-5.3395973884175625
10,0.01399999856949,-8.736737072468e-06,21.28520141945,-0.00981680303812,-5.424974753042826
11,0.1140000075102,-3.21996085404e-05,21.28522488232,-0.01119547989219,-6.186860990027633
12,0.2145000100136,-3.211809962522e-05,21.28522480081,-0.008393338881433,-4.638338097310631
13,0.3149999976158,-1.49598763528e-05,21.28520764259,-0.01129157003015,-6.239962449884286
14,0.4150000065565,1.945416215676e-06,21.2851907373,-0.009636322967708,-5.325237616460732
15,0.5050000101328,0.01012059673667,21.27507208598,-0.0007964881369844,-0.44015633373306223
16,0.5225000083447,0.02012750133872,21.26506518137,0.009708710946143,5.365240757392536
17,0.5330000072718,0.03055688366294,21.25463579905,0.01870165206492,10.334931840683227
18,0.5410000085831,0.0409710071981,21.24422167552,0.02308628894389,12.757975705096756
19,0.5480000078678,0.05155297741294,21.2336397053,0.03222630172968,17.80894172864399
20,0.554000005126,0.06168099865317,21.22351168406,0.04605457931757,25.450742883364704
21,0.5595000088215,0.07191582769156,21.21327685502,0.05679485946894,31.386050787122706
22,0.5649999976158,0.08283730596304,21.20235537675,0.05818245559931,32.15286600644066
23,0.5705000013113,0.09382363408804,21.19136904863,0.06653282791376,36.76745986235187
24,0.5760000050068,0.1044742688537,21.18071841386,0.07085106521845,39.15380990570338
25,0.582000002265,0.115121088922,21.17007159379,0.08659050613642,47.85176068208451
26,0.588500007987,0.1255607157946,21.15963196692,0.1077415272593,59.5402661096798
27,0.5955000072718,0.1357192546129,21.1494734281,0.1237479969859,68.38578270148247
28,0.6035000085831,0.1457633525133,21.1394293302,0.1381141543388,76.32482768742003
29,0.6140000075102,0.1558818370104,21.1293108457,0.1665794253349,92.05534360922444
30,0.6265000104904,0.166194871068,21.11899781165,0.2112190127373,116.72413177823368
31,0.6370000094175,0.1765269786119,21.1086657041,0.2285148501396,126.28218045007301
32,0.6465000063181,0.1869639903307,21.09822869238,0.2438308596611,134.74613400489685
33,0.655500009656,0.1971339732409,21.08805870947,0.2607261538506,144.082833953684
34,0.6650000065565,0.2076549082994,21.07753777441,0.2799865603447,154.72654541026475
35,0.6750000119209,0.2179698497057,21.06722283301,0.2945205569267,162.75834193424396
36,0.6864999979734,0.2281779795885,21.05701470312,0.3283378481865,181.44649841332563
37,0.6979999989271,0.2386073619127,21.0465853208,0.3579627871513,197.8178715905604
38,0.7080000042915,0.2487411051989,21.03645157751,0.3784286379814,209.12773729955964
39,0.7175000011921,0.2589149177074,21.02627776501,0.3975936770439,219.71874667923373
40,0.7269999980927,0.2691535651684,21.01603911754,0.4197265505791,231.94984469296597
41,0.7370000034571,0.2795982062817,21.00559447643,0.4401733279228,243.24916998653967
42,0.7475000023842,0.2896136939526,20.99557898876,0.4680740237236,258.66768961293064
43,0.7585000097752,0.2998370826244,20.98535560009,0.4991180300713,275.82326969491896
44,0.7690000087023,0.3101405799389,20.97505210277,0.5259048342705,290.62622906275726
45,0.7789999991655,0.3205165565014,20.96467612621,0.548861682415,303.3126730211155
46,0.7885000109673,0.3305453956127,20.9546472871,0.5722762942314,316.2520869487473
47,0.7985000014305,0.3409862220287,20.94420646068,0.5956451296806,329.16620387944624
48,0.8090000003576,0.3514651954174,20.9337274873,0.6243926882744,345.052717948985
49,0.8194999992847,0.3617400825024,20.92345260021,0.6508437991142,359.670166006019
50,0.8299999982119,0.3721027076244,20.91308997509,0.6781799197197,374.7766893369966
51,0.8400000035763,0.3821906149387,20.90300206777,0.7035117745399,388.775612643667
52,0.8500000089407,0.3923682272434,20.89282445547,0.7282386422157,402.4402071498572
53,0.859999999404,0.4024657309055,20.88272695181,0.7528968453407,416.06685616064806
54,0.8704999983311,0.4129408895969,20.87225179312,0.7813697457314,431.80158824864475
55,0.8809999972582,0.4233550131321,20.86183766958,0.8111320137978,448.24885241667823
56,0.8910000026226,0.4333571493626,20.85183553335,0.837071955204,462.58381734136873
57,0.9015000015497,0.443832308054,20.84136037466,0.8651328682899,478.0908764569695
58,0.9120000004768,0.454122453928,20.83107022879,0.893712580204,493.8846348711062
59,0.922499999404,0.4642657339573,20.82092694876,0.9226966500282,509.9018500913911
60,0.9329999983311,0.4744452536106,20.8107474291,0.9508338570595,525.4510708685835
61,0.9434999972582,0.4847716391087,20.8004210436,0.9792380928993,541.1478574611258
62,0.9540000110865,0.495231539011,20.7899611437,1.009214043617,557.7132072201571
63,0.9645000100136,0.5057296156883,20.77946306702,1.038335442543,573.8063134313512
64,0.9750000089407,0.5161551833153,20.7690374994,1.067723870277,590.0469854576187
65,0.9855000078678,0.5264472365379,20.75874544618,1.097753167152,606.6418154410571
66,0.9960000067949,0.5367125868797,20.74848009583,1.126752495766,622.6674629940583
67,1.006500005722,0.5470046401024,20.73818804261,1.156728386879,639.2327798142609
68,1.017000004649,0.557411134243,20.72778154847,1.186444878578,655.6547469852509
69,1.027000010014,0.5674552321434,20.71773745057,1.215062737465,671.469586230294
70,1.037000000477,0.5775412917137,20.707651391,1.244542717934,687.7608522507588
71,1.047000005841,0.5876502394676,20.69754244325,1.276364922523,705.3464812799982
72,1.057000011206,0.597881257534,20.68731142518,1.303907036781,720.5668410972289
73,1.067000001669,0.608135163784,20.67705751893,1.333119988441,736.7105413020679
74,1.077000007033,0.6182669997215,20.66692568299,1.362241387367,752.803647513262
75,1.086999997497,0.6282767653465,20.65691591737,1.391828179359,769.1539398596457
76,1.097000002861,0.6382846236229,20.64690805909,1.42056453228,785.0342614353762
77,1.107500001788,0.6487521529198,20.63644052979,1.45368373394,803.3366387112313
78,1.118000000715,0.6592273116112,20.6259653711,1.484994769096,820.6397846084589
79,1.12800000608,0.6692370772362,20.61595560548,1.516481280327,838.0399023276676
80,1.138000011444,0.6792964339256,20.60589624879,1.547502398491,855.1828339111341
81,1.148000001907,0.6894244551659,20.59576822755,1.576181292534,871.0314024852737
82,1.158000007272,0.6994914412498,20.58570124146,1.605020403862,886.9685105485677
83,1.168500006199,0.7099856734276,20.57520700929,1.636682391167,904.4656000892052
84,1.178500011563,0.7199916243553,20.56520105836,1.665964007378,920.6472457895538
85,1.188500002027,0.7299975752831,20.55519510743,1.694459795952,936.3946263758513
86,1.199000000954,0.7404345870018,20.54475809571,1.726320147514,954.0013362360522
87,1.209499999881,0.7508105635643,20.53438211915,1.757554888725,971.2623204719092
88,1.219999998808,0.7612475752831,20.52394510743,1.789201617241,988.7509776802724
89,1.230499997735,0.7716922163963,20.51350046632,1.820176959038,1005.8686122669167
90,1.241000011563,0.7821292281151,20.5030634546,1.852418780327,1023.6861304350759
91,1.25150001049,0.7925280928612,20.49266458985,1.885537981987,1041.9885077109311
92,1.262000009418,0.8029956221581,20.48219706056,1.916910052299,1059.325382937255
93,1.272500008345,0.8134593367577,20.47173334596,1.948678851128,1076.8814988043641
94,1.282499998808,0.8234729170799,20.46171976563,1.979761004448,1094.058159716927
95,1.292500004172,0.8335475325584,20.45164515015,2.009004354477,1110.2186587088781
96,1.303000003099,0.8440417647362,20.44115091798,2.038865804672,1126.7207330367485
97,1.313500002027,0.8543280959129,20.4308645868,2.070611715317,1144.2642004051697
98,1.324000000954,0.8645305037498,20.42066217896,2.102235555649,1161.7402091148458
99,1.334499999881,0.8748797774315,20.41031290528,2.132539510727,1178.486821079771
100,1.344500005245,0.8848853111267,20.40030737159,2.163079738617,1195.364002440349
101,1.35450001061,0.8950667381287,20.39012594458,2.194726467133,1212.8526596487122
102,1.364500001073,0.9054083824158,20.3797843003,2.224885463715,1229.5191644567572
103,1.374500006437,0.9157347679138,20.3694579148,2.255662441254,1246.527178723285
104,1.384500011802,0.9258399009705,20.35935278174,2.287255764008,1263.9863227684127
105,1.395000010729,0.9362006187439,20.34899206397,2.320512294769,1282.3645910347348
106,1.405500009656,0.9465270042419,20.33866567847,2.353600978851,1300.650103646042
107,1.416000008583,0.9569754600525,20.32821722266,2.386788845062,1318.990426417407
108,1.425999999046,0.9672064781189,20.31798620459,2.417459011078,1335.9394143580162
109,1.436000004411,0.9775786399841,20.30761404273,2.448365688324,1353.0191034491506
110,1.446000009775,0.9879851341248,20.29720754859,2.479852199554,1370.4192211678069
111,1.456000000238,0.9982466697693,20.28694601294,2.510385036469,1387.292318117949
112,1.466499999166,1.008691310883,20.27650137183,2.542443752289,1405.0086482982663
113,1.476999998093,1.018853664398,20.26633901831,2.576982021332,1424.09523247893
114,1.487500011921,1.029054164886,20.25613851783,2.60940694809,1442.0139386349315
115,1.498000010848,1.039405345917,20.2457873368,2.642083644867,1460.0717782737322
116,1.508000001311,1.049411296844,20.23578138587,2.675080776215,1478.3066968913943
117,1.518000006676,1.059550762177,20.22564192054,2.707520961761,1496.233835379117
118,1.527999997139,1.069655895233,20.21553678748,2.738626003265,1513.4231447903676
119,1.538500010967,1.080041408539,20.20515127417,2.772187709808,1531.9700597032777
120,1.549000009894,1.090278148651,20.19491453406,2.805345058441,1550.2935178100943
121,1.559500008821,1.100566387177,20.18462629554,2.836556911469,1567.5418535478163
122,1.570000007749,1.110972881317,20.1742198014,2.867730617523,1584.7691084540243
123,1.579999998212,1.120982646942,20.16421003577,2.898377895355,1601.7054478959458
124,1.590000003576,1.13105237484,20.15414030787,2.928752183914,1618.4909276426974
125,1.600000008941,1.141111731529,20.14408095118,2.959483385086,1635.4736449124032
126,1.609999999404,1.151174902916,20.1340177798,2.990176439285,1652.4352813511473
127,1.620000004768,1.161203742027,20.12398894069,3.021769762039,1669.8944253962748
128,1.630000010133,1.171221137047,20.11397154567,3.052775621414,1687.0289246474674
129,1.640000000596,1.181227087975,20.10396559474,3.083354234695,1703.9273185938791
130,1.650499999523,1.191717505455,20.09347517726,3.11567234993,1721.786998423962
131,1.66099999845,1.202158331871,20.08303435084,3.148402452469,1739.874351225998
132,1.671499997377,1.212580084801,20.07261259791,3.180987596512,1757.8815968711538
133,1.682000011206,1.223024725914,20.0621679568,3.213099718094,1775.6274402147067
134,1.692000001669,1.233030676842,20.05216200587,3.246073961258,1793.8497103336815
135,1.702000007033,1.243151068687,20.04204161403,3.276675462723,1810.760752778781
136,1.711999997497,1.253355383873,20.03183729884,3.30894780159,1828.5951356114883
137,1.722000002861,1.263510107994,20.02168257472,3.341593980789,1846.6361105857407
138,1.732000008225,1.273577094078,20.01161558864,3.37552189827,1865.385401474335
139,1.741999998689,1.283617377281,20.00157530543,3.408038377762,1883.3547016239806
140,1.752000004053,1.293653845787,19.99153883693,3.44233250618,1902.3063684877063
141,1.762000009418,1.303720831871,19.98147185084,3.476184129715,1921.013497714377
142,1.771999999881,1.313875555992,19.97131712672,3.509387254715,1939.3622528180163
143,1.782000005245,1.324068427086,19.96112425563,3.541835069656,1957.2936074721522
144,1.79200001061,1.33421933651,19.9509733462,3.575122117996,1975.6887404035754
145,1.802000001073,1.344267249107,19.94092543361,3.60801243782,1993.8646326947662
146,1.8125,1.35472714901,19.9304655337,3.642359972,2012.8458127217275
147,1.822999998927,1.365122199059,19.92007048365,3.676913499832,2031.9408292346657
148,1.833499997854,1.375536322594,19.90965636012,3.711749315262,2051.191843895504
149,1.844000011683,1.386012673378,19.89918000934,3.746962070465,2070.651163515095
150,1.854000002146,1.396045327187,19.88914735553,3.779058933258,2088.3885745263738
151,1.86400000751,1.406089425087,19.87910325763,3.811110019684,2106.1006885408306
152,1.873999997973,1.416091561317,19.8691011214,3.843695163727,2124.1079341859863
153,1.884500011802,1.426524758339,19.85866792437,3.87855386734,2143.3715973449594
154,1.895000010729,1.43699991703,19.84819276568,3.913252353668,2162.546721014778
155,1.905000001192,1.447021126747,19.83817155597,3.947371006012,2181.401416057075
156,1.915000006557,1.45710337162,19.82808931109,3.982511997223,2200.821077363948
157,1.925000011921,1.467269539833,19.81792314288,4.017004489899,2219.8823645477896
158,1.935000002384,1.47748529911,19.8077073836,4.051046848297,2238.6948979281633
159,1.945000007749,1.487598061562,19.79759462115,4.084814548492,2257.3556493270503
160,1.955500006676,1.49803507328,19.78715760943,4.120314121246,2276.9734704431944
161,1.966000005603,1.508296608925,19.77689607379,4.155401706696,2296.3636185873843
162,1.97650000453,1.518588662148,19.76660402057,4.191107273102,2316.0952761895055
163,1.986500009894,1.528621315956,19.75657136676,4.223608493805,2334.0561440068773
164,1.996500000358,1.538806557655,19.74638612506,4.258078098297,2353.104782692031
165,2.006500005722,1.549052834511,19.7361398482,4.292273044586,2372.0016393956985
166,2.016500011086,1.559249520302,19.72594316241,4.326147556305,2390.721417121057
167,2.02650000155,1.569266915321,19.71592576739,4.359892368317,2409.369520021809
168,2.037000000477,1.57953608036,19.70565660235,4.396666049957,2429.6914408853286
169,2.047499999404,1.589782357216,19.6954103255,4.431631565094,2449.0141303707733
170,2.057999998331,1.600108742714,19.68508394,4.467878818512,2469.045135770007
171,2.068499997258,1.610602974892,19.67458970782,4.50436258316,2489.2068423197657
172,2.078500002623,1.620685219765,19.66450746295,4.538343906403,2507.9856463715955
173,2.088500007987,1.630756020546,19.65443666217,4.573027133942,2527.1523377091403
174,2.099000006914,1.641245722771,19.64394695994,4.609774112701,2547.459501991042
175,2.109500005841,1.651671290398,19.63352139232,4.64528131485,2567.081539273599
176,2.120000004768,1.662003397942,19.62318928477,4.680346012115,2586.459038918549
177,2.130500003695,1.672284007072,19.61290867564,4.715624332428,2605.954591216442
178,2.141000002623,1.682564616203,19.60262806651,4.750994205475,2625.50073750798
179,2.15150000155,1.693005442619,19.59218724009,4.786760807037,2645.266124439197
180,2.161500006914,1.703209757805,19.58198292491,4.820459842682,2663.888930343127
181,2.171499997377,1.713539958,19.57165272471,4.855722904205,2683.376050308193
182,2.181500002742,1.723851084709,19.561341598,4.891878604889,2703.356461713782
183,2.191500008106,1.734124064445,19.55106861827,4.927683353424,2723.142929475961
184,2.201499998569,1.744194865227,19.54099781749,4.963053226471,2742.6890757674983
185,2.211999997497,1.754467844963,19.53072483775,5.001955509186,2764.1873069885078
186,2.222500011325,1.764704585075,19.52048809764,5.039927005768,2785.171165938585
187,2.233000010252,1.775130152702,19.51006253001,5.076258182526,2805.248549165603
188,2.243000000715,1.785189509392,19.50000317332,5.111025333405,2824.4616183309313
189,2.25300000608,1.795328974724,19.48986370799,5.14585351944,2843.7084168253564
190,2.263000011444,1.805510401726,19.47968228099,5.179918766022,2862.5335987044173
191,2.273000001907,1.815607905388,19.46958477733,5.214464664459,2881.624399050942
192,2.283000007272,1.825632929802,19.45955975291,5.250887393951,2901.7523762716046
193,2.293500006199,1.836119532585,19.44907315013,5.288454532623,2922.5127784155884
194,2.304000005126,1.846587061882,19.43860562083,5.325426578522,2942.9443195997774
195,2.314500004053,1.856982111931,19.42821057078,5.36386346817,2964.185364685044
196,2.32500000298,1.867369532585,19.41782315013,5.401003360748,2984.709661524248
197,2.335500001907,1.877665400505,19.40752728221,5.438066959381,3005.191796702081
198,2.346000000834,1.887927651405,19.39726503131,5.475459575653,3025.855754045231
199,2.356499999762,1.898280739784,19.38691194293,5.512988567352,3046.5950753582542
200,2.366500005126,1.908282876015,19.3769098067,5.54851102829,3066.2255449730856
201,2.37650001049,1.918353676796,19.36683900592,5.584971904755,3086.37460302471
202,2.386500000954,1.928393959999,19.35679872271,5.620913982391,3106.236961777356
203,2.396999999881,1.93884241581,19.3463502669,5.658999919891,3127.2840632197654
204,2.407499998808,1.949157357216,19.3360353255,5.696177959442,3147.829440889931
205,2.417999997735,1.95946085453,19.32573182818,5.731891155243,3167.565314658465
206,2.428500011563,1.969871163368,19.31532151934,5.768107891083,3187.5794553931505
207,2.438500002027,1.979919075966,19.30527360675,5.804233074188,3207.5430021336383
208,2.448500007391,1.990081429482,19.29511125323,5.839633464813,3227.1060130897245
209,2.458499997854,2.000335216522,19.28485746619,5.87655210495,3247.5080411106774
210,2.468500003219,2.0105509758,19.27464170691,5.914332866669,3268.3864959070515
211,2.478500008583,2.020694255829,19.26449842688,5.951602458954,3288.9824675708624
212,2.488499999046,2.030780315399,19.25441236731,5.988620281219,3309.4393057513203
213,2.498500004411,2.040881633759,19.24431104895,6.025928020477,3330.0563582460923
214,2.508500009775,2.050979137421,19.23421354529,6.063601970673,3350.8757867165477
215,2.518500000238,2.061114788055,19.22407789466,6.100833415985,3371.4506775493965
216,2.528500005603,2.071200847626,19.21399183509,6.137721538544,3391.8358409058005
217,2.53900000453,2.081679821014,19.2035128617,6.17538022995,3412.64683704343
218,2.549500003457,2.09205198288,19.19314069983,6.212878704071,3433.369293691904
219,2.560000002384,2.102393627167,19.18279905555,6.250293254852,3454.0453725125953
220,2.570500001311,2.112788677216,19.1724040055,6.288066387177,3474.9196111431093
221,2.581000000238,2.123252391815,19.1619402909,6.326037883759,3495.903470093186
222,2.591000005603,2.133277416229,19.15191526648,6.361926555634,3515.7363156831493
223,2.60150000453,2.143724441528,19.14146824118,6.400494098663,3537.049562613617
224,2.612000003457,2.154016494751,19.13117618796,6.438320636749,3557.9533144068146
225,2.622500002384,2.164190292358,19.12100239035,6.476765155792,3579.1985756584945
226,2.633000001311,2.174444198608,19.1107484841,6.514309406281,3599.946329304344
227,2.643500000238,2.184911727905,19.10028095481,6.553402423859,3621.549964679056
228,2.653500005603,2.195055007935,19.09013767478,6.590061664581,3641.808643050244
229,2.663500010967,2.205297470093,19.07989521262,6.628239154816,3662.9063384868505
230,2.673500001431,2.215517044067,19.06967563865,6.664692401886,3683.051180372061
231,2.684000000358,2.225992202759,19.05920047995,6.703434467316,3704.460872103916
232,2.694499999285,2.236198425293,19.04899425742,6.742550373077,3726.0771559767627
233,2.704999998212,2.246341705322,19.03885097739,6.782192707062,3747.984355315001
234,2.715499997139,2.2565574646,19.02863521811,6.820293903351,3769.0398890896845
235,2.726000010967,2.266941070557,19.01825161216,6.861179828644,3791.63432351075
236,2.736000001431,2.276996612549,19.00819607016,6.898609638214,3812.3188346637153
237,2.746000006795,2.287181854248,18.99801082847,6.93522310257,3832.5522160386327
238,2.755999997258,2.297340393066,18.98785228965,6.972958087921,3853.4053738376324
239,2.766000002623,2.307399749756,18.97779293296,7.011280536652,3874.58317643112
240,2.77650000155,2.317832946777,18.96735973594,7.050701618195,3896.3681069505546
241,2.787000000477,2.328296661377,18.95689602134,7.091930866241,3919.152268848064
