,time,travel,position,force,stress
0,0.0,0.0,19.65013206149,-0.01044148020446,-7.5365677448343895
1,0.0,0.0,19.65013526524,-0.01043611578643,-7.53269575550883
2,0.0,0.0,19.65012483816,-0.01047783903778,-7.562811228044967
3,0.0,0.0,19.65012556086,-0.01081502810121,-7.806191301520753
4,0.0,0.0,19.65012363489,-0.01084953919053,-7.8311010995106125
5,0.0,0.0,19.68863105998,-0.01170975062996,-8.451994082229339
6,0.0,0.0,19.68863655023,-0.01178675983101,-8.507578640100835
7,0.007999999999811,-6.10388815403e-06,19.68864265412,-0.01198448333889,-8.650293713318845
8,0.01099999999951,-1.040659844875e-05,19.68864695683,-0.01173807773739,-8.47244033697301
9,0.01299999999992,-9.696930646896e-06,19.68864624716,-0.01137186679989,-8.20811253235876
10,0.01400000000012,-9.045004844666e-06,19.68864559523,-0.01118780765682,-8.075260276391193
11,0.1139999999996,-3.898754584952e-05,19.68867553777,-0.01166076119989,-8.416633946379473
12,0.2139999999999,-1.605189481779e-06,19.68863815542,-0.01231181528419,-8.886559006409009
13,0.3139999999994,5.222831077845e-06,19.6886313274,-0.01039361953735,-7.502022340071431
14,0.3719999999994,0.01001617126167,19.67862037897,0.02719911560416,19.63208025455767
15,0.3804999999993,0.02066299133003,19.6679735589,0.04205187782645,30.352672210321924
16,0.3859999999995,0.03068420104682,19.65795234918,0.0366197489202,26.43180977521055
17,0.3909999999996,0.04147216677666,19.64716438345,0.04004367813468,28.90317149530689
18,0.3954999999996,0.05255004763603,19.63608650259,0.0521591566503,37.648016364624716
19,0.3994999999995,0.06368133425713,19.62495521597,0.06189426407218,44.67473050395714
20,0.4029999999993,0.07446166872978,19.6141748815,0.06782993674278,48.959046359292564
21,0.4059999999999,0.08449432253838,19.60414222769,0.06839534640312,49.36715403419062
22,0.4089999999997,0.09520599246025,19.59343055777,0.06515094637871,47.02537489018918
23,0.4119999999994,0.1064593493938,19.58217720083,0.06211635097861,44.83503086202662
24,0.415,0.1181399524212,19.57049659781,0.05660792812705,40.85910013428908
25,0.4179999999997,0.1300418078899,19.55859474234,0.04851314052939,35.01635428645889
26,0.4209999999994,0.1419894397259,19.5466471105,0.0438515804708,31.651681606892705
27,0.424,0.1538912951946,19.53474525503,0.03853770717978,27.816175025351527
28,0.4269999999997,0.1655413806438,19.52309516958,0.03623348847032,26.153010410497163
29,0.4299999999994,0.1769091784954,19.51172737173,0.04386669769883,31.662593087921376
30,0.433,0.1880633533001,19.50057319693,0.05528790131211,39.9063164943274
31,0.4359999999997,0.1990954577923,19.48954109244,0.06585461646318,47.53327771218143
32,0.4389999999994,0.2100665271282,19.4785700231,0.07329709082842,52.90518965804384
33,0.442,0.2209994494915,19.46763710074,0.07492095977068,54.07728384894673
34,0.4449999999997,0.2318026721478,19.45683387808,0.07457239180803,53.82569058700017
35,0.4479999999994,0.2423922717571,19.44624427847,0.07588750869036,54.774930281178946
36,0.451,0.252730101347,19.43590644888,0.07968694716692,57.517331254049985
37,0.4539999999997,0.2627856433392,19.42585090689,0.08421117812395,60.78288100688763
38,0.4574999999995,0.2741305530071,19.41450599722,0.09229833632708,66.62012002545592
39,0.4609999999993,0.2850787341595,19.40355781607,0.1036050990224,74.78124099292631
40,0.4645,0.2957522571087,19.39288429312,0.1162775233388,83.9280843984274
41,0.4679999999998,0.3062655627728,19.38237098746,0.1291330456734,93.20708632849477
42,0.4714999999997,0.3167178332806,19.37191871695,0.140271961689,101.24705705216016
43,0.4749999999995,0.3271548449993,19.36148170523,0.1492822766304,107.75062241151876
44,0.4785000000002,0.337576597929,19.3510599523,0.1572931408882,113.53279313744646
45,0.482,0.3479907214642,19.34064582876,0.1646021008492,118.80833557125096
46,0.4854999999998,0.3584048449993,19.33023170523,0.1739175915718,125.53217410108536
47,0.4889999999996,0.3688342273235,19.3198023229,0.1840189099312,132.82321604504645
48,0.4924999999994,0.3792864978313,19.3093500524,0.1938837170601,139.9435462818383
49,0.4960000000001,0.3897692859173,19.29886726431,0.2034967541695,146.8821511529804
50,0.4994999999999,0.4003054797649,19.28833107046,0.2124918103218,153.37470285378637
51,0.5029999999997,0.4108874499798,19.27774910025,0.2210443615913,159.5478584573591
52,0.5064999999995,0.4215075671673,19.26712898306,0.229512989521,165.66043893907266
53,0.5099999999993,0.4321429431438,19.25649360708,0.2384775280952,172.13096332284547
54,0.5135,0.4427783191204,19.24585823111,0.2481668591499,179.1246364866065
55,0.5169999999998,0.4534213244915,19.23521522574,0.258680164814,186.71304721076768
56,0.5204999999996,0.4640795886517,19.22455696158,0.2694147229195,194.46115598354547
57,0.5239999999994,0.4747378528118,19.21389869742,0.2795236706734,201.7577047567468
58,0.5275000000001,0.4854342639446,19.20320228628,0.2885721325874,208.28880426237876
59,0.5309999999999,0.4961306750774,19.19250587515,0.2982767224312,215.2934910846925
60,0.5344999999998,0.5068117976189,19.18182475261,0.3073328137398,221.83009741963687
61,0.5379999999996,0.5174624323845,19.17117411784,0.3162286877632,228.251060340031
62,0.5414999999994,0.5280672907829,19.16056925944,0.3260019421577,235.30530862565124
63,0.5450000000001,0.5385958552361,19.15004069499,0.3353784680367,242.07320178969627
64,0.5484999999999,0.5490481257439,19.13958842448,0.3456705212593,249.50191446516862
65,0.5519999999997,0.5594088435173,19.12922770671,0.3568323254585,257.55840567662693
66,0.5554999999995,0.5697314143181,19.11890513591,0.369161427021,266.45744176530667
67,0.5590000000002,0.5800387263298,19.1085978239,0.3810556530952,275.0425885859935
68,0.5625,0.590338408947,19.09829814128,0.3916986584663,282.72461540759963
69,0.5659999999998,0.6006152033806,19.08802134685,0.4012354016304,289.6081519861228
70,0.5694999999996,0.6108843684196,19.07775218181,0.4114893078804,297.0093305153218
71,0.5729999999994,0.6211230158806,19.06751353435,0.4225824475288,305.01626026340136
72,0.5765000000001,0.6313464045525,19.05729014568,0.4346826672554,313.7500914742243
73,0.5799999999999,0.6415621638298,19.0470743864,0.4452798962593,321.3990773202446
74,0.5834999999997,0.6517626643181,19.03687388591,0.4561823010445,329.268336336813
75,0.5869999999995,0.6619707942009,19.02666575603,0.4684579968452,338.1288246205945
76,0.5904999999993,0.6722018122673,19.01643473796,0.4810388684273,347.20958607499614
77,0.5940000000001,0.6824786067009,19.00615794353,0.4936655163765,356.32338850491146
78,0.5974999999999,0.6928368210793,18.99579972915,0.5057540535927,365.04878738340835
79,0.6009999999997,0.7032814621925,18.98535508804,0.5168548226357,373.0612239608004
80,0.6044999999995,0.713771879673,18.97486467055,0.527314722538,380.61108688006334
81,0.6080000000002,0.7243004441261,18.9643361061,0.5378890633583,388.24355223829076
82,0.6115,0.7348595261574,18.95377702407,0.5488219857216,396.1348385718922
83,0.6149999999998,0.7454262375832,18.94321031264,0.5610976815224,404.99532685574593
84,0.6184999999996,0.7560005784035,18.93263597182,0.5725265145302,413.2445570914066
85,0.6219999999994,0.7666054368019,18.92203111343,0.5834518074989,421.13033659569567
86,0.6255000000001,0.7772255539894,18.91141099624,0.5954452157021,429.78707219686646
87,0.6289999999999,0.787860929966,18.90077562026,0.6078200936317,438.71914926105984
88,0.6324999999997,0.7985039353371,18.89013261489,0.6203170418739,447.7393355935302
89,0.6359999999995,0.8091469407082,18.87948960952,0.6320739388466,456.22535948753176
90,0.6394999999993,0.8197746872902,18.86886186294,0.6435104012489,464.48009655243266
91,0.643,0.8303948044777,18.85824174575,0.6553969979286,473.0597365438792
92,0.6464999999998,0.840969145298,18.84766740493,0.6677032113075,481.9422521447661
93,0.6499999999996,0.8514977097511,18.83713884048,0.6803374886513,491.0615614039937
94,0.6534999999994,0.8619728684425,18.82666368179,0.69321590662,500.3570891995588
95,0.6570000000002,0.8724098801613,18.81622667007,0.7061248421669,509.67464431222913
96,0.6605,0.8828011155128,18.80583543471,0.7201476693153,519.7961964972228
97,0.6639999999998,0.8931770920753,18.79545945815,0.7337356209755,529.6038594142956
98,0.6674999999996,0.9035378098488,18.78509874038,0.746682703495,538.9489486732393
99,0.6709999999994,0.9138603806496,18.77477616958,0.759736597538,548.3711335419074
100,0.6745000000001,0.9241524338722,18.76448411636,0.7717223763466,557.0223623137657
101,0.6779999999999,0.9344368577003,18.75419969253,0.7843642830849,566.1471784022337
102,0.6814999999997,0.9446983933449,18.74393815688,0.7975860238075,575.6905135146201
103,0.6849999999995,0.9549599289894,18.73367662124,0.8110442757607,585.4045603342479
104,0.6884999999993,0.965236723423,18.7233998268,0.824060022831,594.7992110565704
105,0.692,0.9755516648293,18.7130848854,0.8373351693153,604.3810939737829
106,0.6954999999998,0.9859200119972,18.70271653823,0.8508544564247,614.1391954274769
107,0.6989999999996,0.9963417649269,18.6922947853,0.8638091683388,623.489791515733
108,0.7024999999994,1.006816983223,18.681819567,0.8761230111122,632.3778139458601
109,0.7060000000001,1.017322659492,18.67131389074,0.888269007206,641.1446861322688
110,0.7094999999999,1.027828335762,18.66080821447,0.9006972908974,650.1153110013605
111,0.7129999999997,1.038341641426,18.6502949088,0.9142699837685,659.9119602598806
112,0.7164999999995,1.048885464668,18.63975108556,0.9284301400185,670.1326353716316
113,0.7199999999993,1.059452176094,18.62918437413,0.942224085331,680.0889826787684
114,0.7235000000001,1.070049405098,18.61858714513,0.9570708870888,690.805272424162
115,0.7269999999999,1.080669522285,18.60796702794,0.9715514779091,701.2572343649415
116,0.7304999999997,1.091327786446,18.59730876378,0.9857726693153,711.5219641107589
117,0.7339999999995,1.102031826973,18.58660472325,0.999238550663,721.2415177596268
118,0.7375000000002,1.112751126289,18.57588542394,1.012567162514,730.8619915040254
119,0.741,1.123439908028,18.5651966422,1.025712609291,740.3502583235763
120,0.7444999999998,1.134090542793,18.55454600743,1.038980126381,749.9266344116927
121,0.7479999999996,1.144718289375,18.54391826085,1.052568078041,759.7342973286213
122,0.7514999999994,1.15530025959,18.53333629064,1.066201806068,769.5750012209912
123,0.7550000000001,1.165859341621,18.52277720861,1.080041527748,779.5643895039302
124,0.7584999999999,1.176410794258,18.51222575597,1.09376680851,789.4711753479049
125,0.7619999999997,1.186924099922,18.50171245031,1.106187462807,798.4362933878284
126,0.7654999999995,1.197383999825,18.4912525504,1.11898958683,807.6767528904857
127,0.7689999999993,1.20779812336,18.48083842687,1.13331758976,818.0185782462439
128,0.7725,1.218189358711,18.47044719152,1.147729516029,828.4209787232836
129,0.7759999999998,1.228534817696,18.46010173253,1.161042809486,838.0303957868416
130,0.7794999999996,1.238857388496,18.44977916173,1.175019860268,848.1189069968269
131,0.7829999999994,1.249149441719,18.43948710851,1.189347863197,858.4607323518633
132,0.7865000000002,1.259441494942,18.42919505529,1.204377770424,869.3091859998888
133,0.79,1.269741177559,18.41889537267,1.21876680851,879.6950659895689
134,0.7934999999998,1.28006374836,18.40857280187,1.233506798744,890.3342601250217
135,0.7969999999996,1.29040157795,18.39823497228,1.247560143471,900.4778396274094
136,0.8004999999994,1.300777554512,18.38785899572,1.262010216713,910.9077742510113
137,0.8040000000001,1.311176419258,18.37746013097,1.277177453041,921.8553508253614
138,0.8074999999999,1.321605801582,18.36703074865,1.292878746986,933.1884054479716
139,0.8109999999997,1.332073330879,18.35656321935,1.308351159096,944.3562551933749
140,0.8144999999995,1.342586636543,18.34604991368,1.323457360268,955.2597771338029
141,0.8179999999993,1.353160977364,18.33547557286,1.338380455971,966.0311351717434
142,0.8215,1.363788723946,18.32484782628,1.353501915932,976.945670770652
143,0.8249999999998,1.374485135078,18.31415141515,1.368409752846,987.7060151501119
144,0.8284999999996,1.385227322578,18.30340922765,1.382890343666,998.1579770906749
145,0.8319999999994,1.396015286446,18.29262126378,1.396958947182,1008.312570251543
146,0.8355000000001,1.406818509102,18.28181804113,1.410356163979,1017.9825624371045
147,0.8389999999999,1.417606472969,18.27103007726,1.424684166908,1028.3243877921407
148,0.8424999999997,1.428379178047,18.26025737218,1.439210534096,1038.8093907088669
149,0.8459999999995,1.439106106758,18.24953044347,1.454026818275,1049.5036531367223
150,0.8494999999994,1.449785351753,18.23885119847,1.469416260719,1060.6116161135512
151,0.8530000000001,1.460435986519,18.22820056371,1.485056519508,1071.9006161022398
152,0.8564999999999,1.471071362495,18.21756518773,1.499598145485,1082.3966326774464
153,0.8599999999997,1.481668591499,18.20696795873,1.514780640602,1093.3552229102768
154,0.8634999999995,1.492250561714,18.19638598851,1.530390381813,1104.6221955820045
155,0.8670000000002,1.502794384956,18.18584216527,1.545282959938,1115.371526302984
156,0.8705,1.513315320015,18.17532123021,1.559671998024,1125.7574062926637
157,0.8739999999998,1.523782849312,18.16485370092,1.574320435524,1136.330518477234
158,0.8774999999996,1.534212231636,18.15442431859,1.589151978493,1147.0357945642913
159,0.8809999999994,1.544603466988,18.14403308324,1.604532837868,1158.13756235809
160,0.8845000000001,1.554971814156,18.13366473607,1.619928956032,1169.250343810369
161,0.8879999999999,1.56531727314,18.12331927709,1.635462403297,1180.4622481889724
162,0.8914999999997,1.575662732124,18.1129738181,1.650538086891,1191.3437428124394
163,0.8949999999995,1.586000561714,18.10263598851,1.66536962986,1202.049018899497
164,0.8984999999993,1.596346020699,18.09229052953,1.680140137672,1212.7102403519107
165,0.902,1.606691479683,18.08194507054,1.69417822361,1222.842806195818
166,0.9054999999998,1.617021679878,18.07161487035,1.708902955055,1233.4709866727903
167,0.9089999999997,1.627351880074,18.06128467015,1.724314332008,1244.59478178355
168,0.9124999999995,1.637682080269,18.05095446996,1.739405274391,1255.4872900654973
169,0.9160000000002,1.648035168648,18.04060138158,1.75489294529,1266.666153469381
170,0.9195,1.658418774605,18.03021777562,1.770090699196,1277.635757360692
171,0.9229999999998,1.66883289814,18.01980365209,1.785685181618,1288.891716373939
172,0.9264999999996,1.679300427437,18.00933612279,1.801218628883,1300.1036207525424
173,0.9299999999994,1.689813733101,17.99882281713,1.816385865211,1311.0511973268924
174,0.9335000000001,1.700349926949,17.98828662328,1.831644654274,1322.064855852847
175,0.9369999999999,1.710924267769,17.97771228246,1.846949219704,1333.1115553542431
176,0.9404999999997,1.721521496773,17.96711505346,1.862894654274,1344.620828513263
177,0.9439999999995,1.73214161396,17.95649493627,1.878229737282,1355.68955533162
178,0.9474999999993,1.742769360542,17.94586718969,1.893519043922,1366.7252411738139
179,0.951,1.753419995308,17.93521655492,1.90918982029,1378.036268480185
180,0.9544999999998,1.764078259468,17.92455829076,1.925684571266,1389.942033345946
181,0.9579999999996,1.774736523628,17.9139000266,1.941446900368,1401.3191426032
182,0.9614999999994,1.785432934761,17.90320361547,1.956431031227,1412.1345552750624
183,0.9650000000001,1.796114087105,17.89252246312,1.971674561501,1423.1372001425366
184,0.9684999999999,1.806772351265,17.88186419896,1.986719727516,1433.996667448321
185,0.9719999999998,1.817384839058,17.87125171117,2.001825809479,1444.9001033447507
186,0.9754999999996,1.827943921089,17.86069262914,2.017771244049,1456.4093765037705
187,0.9789999999994,1.838457226753,17.85017932347,2.034494876862,1468.4803462481823
188,0.9825000000001,1.848932385445,17.83970416478,2.051187992096,1480.5292886749112
189,0.9859999999999,1.859384655952,17.82925189428,2.067896366119,1492.5892447601207
190,0.9894999999997,1.86983692646,17.81879962377,2.084772586823,1504.7703510900587
191,0.9929999999995,1.880289196968,17.80834735326,2.101923465729,1517.1497032726456
192,0.9965000000002,1.890787243843,17.79784930638,2.118692874908,1529.253713991777
193,1.0,1.901300549507,17.78733600072,2.134745121002,1540.840082760882
194,1.0035,1.911821484566,17.77681506566,2.150019168854,1551.8647549453171
195,1.007,1.922380566597,17.76625598363,2.165064334869,1562.7242222511018
196,1.010499999999,1.932932019234,17.75570453099,2.180918216705,1574.1674134592383
197,1.014,1.943491101265,17.74514544896,2.197412967682,1586.073178325721
198,1.0175,1.954080700874,17.73455584935,2.214136600494,1598.1441480694111
199,1.021,1.964693188667,17.72394336156,2.230753421783,1610.1380222037376
200,1.0245,1.975359082222,17.71327746801,2.246515750885,1621.5151314609916
201,1.027999999999,1.986055493355,17.70258105687,2.261118412018,1632.05520267012
202,1.0315,1.996774792671,17.69186175756,2.276529788971,1643.1789977808799
203,1.035,2.007501602173,17.68113494805,2.292017459869,1654.3578611840417
204,1.0385,2.0182056427,17.67043090753,2.307383060455,1665.4486153193595
205,1.041999999999,2.028909683228,17.659726867,2.322855472565,1676.616465064763
206,1.0455,2.039590835571,17.64904571466,2.338755130768,1688.0926972483412
207,1.049,2.050249099731,17.6383874505,2.355600833893,1700.2517762605967
208,1.0525,2.060907363892,17.62772918634,2.373011112213,1712.8183606380737
209,1.056,2.071565628052,17.61707092218,2.39048242569,1725.4289996501943
210,1.059499999999,2.082231521606,17.60640502862,2.407358646393,1737.6101059794107
211,1.063,2.09291267395,17.59572387628,2.423777103424,1749.460802552769
212,1.0665,2.103616714478,17.58501983575,2.439478397369,1760.7938571753798
213,1.07,2.11431312561,17.57432342462,2.45493555069,1771.9506932623024
214,1.0735,2.12498664856,17.56364990167,2.471231937408,1783.7132805670951
215,1.076999999999,2.135622024536,17.55301452569,2.487772464752,1795.6520864090191
216,1.0805,2.146242141724,17.5423944085,2.504343509674,1807.612919567904
217,1.084,2.156831741333,17.53180480889,2.520792484283,1819.4856434582236
218,1.0875,2.167406082153,17.52123046807,2.53696680069,1831.1601214958944
219,1.090999999999,2.177949905396,17.51068664483,2.552607059479,1842.4491214845827
220,1.0945,2.188455581665,17.50018096856,2.569117069244,1854.3659000088242
221,1.098,2.198923110962,17.48971343927,2.585077762604,1865.8861868270462
222,1.1015,2.209353208542,17.47928334169,2.601348400116,1877.6301885834691
223,1.105,2.219759702682,17.46887684755,2.617461681366,1889.260611986496
224,1.108499999999,2.23012804985,17.45850850038,2.633941173553,1901.1553631937763
225,1.112,2.240473508835,17.44816304139,2.650359630585,1913.0060597678566
226,1.1155,2.25080370903,17.4378328412,2.666610240936,1924.735606097208
227,1.119,2.261103391647,17.42753315858,2.683791637421,1937.1369855974774
228,1.122499999999,2.271410703659,17.41722584657,2.700744152069,1949.3731602190965
229,1.125999999999,2.28173327446,17.40690327577,2.717055797577,1961.1467611830917
230,1.1295,2.292055845261,17.39658070497,2.733184337616,1972.788198244599
231,1.133,2.30239367485,17.38624287538,2.749175548553,1984.3305123790603
232,1.1365,2.312716245651,17.37592030458,2.766280651093,1996.6768235869276
233,1.139999999999,2.323061704636,17.36557484559,2.784179210663,2009.5958450372234
234,1.1435,2.333445310593,17.35519123964,2.800139904022,2021.116131854724
235,1.147,2.343851804733,17.34478474549,2.816146373749,2032.6694596483876
236,1.1505,2.354288816452,17.33434773378,2.832335948944,2044.354951343817
237,1.154,2.364733457565,17.32390309266,2.848327159882,2055.897265479
238,1.157499999999,2.375170469284,17.31346608094,2.864577770233,2067.6268118083517
239,1.161,2.385607481003,17.30302906922,2.88073682785,2079.29027618682
240,1.1645,2.396044492722,17.29259205751,2.89816236496,2091.8678742234993
241,1.168,2.406473875046,17.28216267518,2.91491651535,2103.96087128415
242,1.171499999999,2.416918516159,17.27171803407,2.930480480194,2115.1948029804357
243,1.175,2.427347898483,17.26128865174,2.946898937225,2127.0454995537943
244,1.1785,2.437777280807,17.25085926942,2.963576793671,2139.0834283227646
245,1.182,2.448199033737,17.24043751649,2.98100233078,2151.661026358722
246,1.1855,2.458651304245,17.22998524598,2.998046398163,2163.9632829319453
