,time,travel,position,force,stress
0,0.0,0.0,44.98178996022,0.002968853339553,1.5120245897751714
1,0.0,0.0,44.98178864891,0.002991145476699,1.5233778819955501
2,0.0,0.0,44.98181013068,0.003156473860145,1.6075789362637845
3,0.0,0.0,44.98181504806,0.003019636496902,1.5378882394324735
4,0.0,0.0,44.98181375306,0.002993380650878,1.5245162468571798
5,0.0,0.0,44.9817856573,0.001053978921846,0.5367870570446635
6,0.0,0.0,44.98178933789,0.001064797164872,0.5422967429747669
7,0.008000001311302,-1.502310624346e-05,44.98180436099,0.0009268124122173,0.4720216855145811
8,0.01100000739098,-1.407641684636e-05,44.9818034143,0.001092036487535,0.5561696160892998
9,0.01300001144409,-1.258063639398e-05,44.98180191852,0.00126846623607,0.6460245491702769
10,0.01400001347065,-1.015174711938e-05,44.98179948963,0.001370509387925,0.6979946996547574
11,0.1145000010729,2.289805706823e-06,44.98178704808,0.001595144392923,0.8124003682528512
12,0.2145000100136,-2.58172640315e-05,44.98181515515,0.002152816392481,1.0964203853843615
13,0.315000012517,-2.543868140492e-05,44.98181477657,-0.0003530542307999,-0.1798090432361951
14,0.4155000001192,-1.822516605898e-05,44.98180756305,0.002694322029129,1.372206941495251
15,0.5155000090599,-7.851490408939e-06,44.98179718938,0.001119127962738,0.5699671911107684
16,0.6160000115633,0.002833691192791,44.97895564669,0.003622605465353,1.8449778133844663
17,0.6565000116825,0.01285442430526,44.96893491358,0.006433951668441,3.2767846772695433
18,0.6735000014305,0.02308113873005,44.95870819916,0.02382397279143,12.133449708297293
19,0.6830000132322,0.03309090435505,44.94869843353,0.03558945283294,18.12555948895443
20,0.6905000060797,0.04382164776325,44.93796769012,0.02593278512359,13.207459009789812
21,0.6970000118017,0.05446465313435,44.92732468475,0.01713609322906,8.727340616603064
22,0.7030000090599,0.06482918560505,44.91696015228,0.01211404521018,6.1696325633243045
23,0.7090000063181,0.07550652325153,44.90628281463,0.004379746504128,2.230586577988542
24,0.7150000035763,0.08619530498981,44.8955940329,3.194523378625e-05,0.016269573968985315
25,0.7210000008345,0.09659035503864,44.88519898285,-0.007553580217063,-3.8470068146775303
26,0.7275000065565,0.107164695859,44.87462464203,-0.009108963422477,-4.639156976417546
27,0.7345000058413,0.1174491196871,44.8643402182,-0.01720959320664,-8.764773847799864
28,0.7425000071526,0.1276572495699,44.85413208832,-0.003858151845634,-1.9649405997816647
29,0.7510000020266,0.1380484849215,44.84374085297,0.008579668588936,4.369589331262179
30,0.7590000033379,0.1482718735933,44.83351746429,0.01013131532818,5.159836526408111
31,0.7665000110865,0.1583121567965,44.82347718109,0.00937117729336,4.772701404252072
32,0.7740000039339,0.1687339097261,44.81305542816,0.00941810104996,4.796599477248331
33,0.7810000032187,0.1787780076265,44.80301133026,0.005990118719637,3.050742412600076
34,0.7880000025034,0.1889022141695,44.79288712372,0.001206488232128,0.6144594109611943
35,0.795500010252,0.1994040757418,44.78238526214,-0.005955605767667,-3.033165110498576
36,0.8035000115633,0.2096961289644,44.77209320892,-0.01047029998153,-5.332479992689536
37,0.8125,0.2197707444429,44.76201859344,-0.009992747567594,-5.089264545446715
38,0.823500007391,0.23011238873,44.75167694916,-0.009152202866971,-4.6611786446664025
39,0.8365000039339,0.240221336484,44.7415680014,0.001436442951672,0.7315743879299561
40,0.8495000004768,0.2504370808601,44.73135225703,0.01129171345383,5.750822438893768
41,0.8605000078678,0.2604888081551,44.72130052973,0.009808328934014,4.995340906622683
42,0.8705000132322,0.2705481648445,44.71124117304,0.006488588638604,3.3046110576759626
43,0.8805000036955,0.2810614705086,44.70072786738,0.002754953689873,1.403086392744142
44,0.8905000090599,0.2914946675301,44.69029467036,-0.0007607667357661,-0.387455316918594
45,0.9005000144243,0.3015235066414,44.68026583125,-0.001652850885876,-0.8417900437791473
46,0.9110000133514,0.3115256428719,44.67026369501,0.0007300236611627,0.3717979975938771
47,0.9220000058413,0.3216266334057,44.66016270448,0.002818055916578,1.4352240929048017
48,0.9335000067949,0.3320617377758,44.64972760011,0.004096858669072,2.086512986661415
49,0.9445000141859,0.3421935737133,44.63959576417,0.005967788863927,3.0393699104727947
50,0.955000013113,0.3522052466869,44.6295840912,0.008441054262221,4.298993634366028
51,0.9650000035763,0.3625240027905,44.6192653351,0.01023400295526,5.212134905429421
52,0.9740000069141,0.3725719153881,44.6092174225,0.008154158480465,4.152878812546248
53,0.983000010252,0.3830585181713,44.59873081972,0.002758268732578,1.4047747301299387
54,0.9920000135899,0.3934116065502,44.58837773134,-0.001887794001959,-0.9614455902432191
55,1.00150001049,0.4038829505444,44.57790638734,-0.002394970040768,-1.2197482257447207
56,1.011500000954,0.4141978919506,44.56759144594,-0.002946622204036,-1.5007023654293274
57,1.021999999881,0.4242076575756,44.55758168031,-0.0001385281211697,-0.07055179277245051
58,1.033000007272,0.4343795478344,44.54740979005,0.005577795673162,2.840748009409018
59,1.043500006199,0.4444617927074,44.53732754518,0.007225111592561,3.679719117909245
60,1.053500011563,0.4544982612133,44.52729107667,0.004481867421418,2.2825963340838444
61,1.063500002027,0.4646911323071,44.51709820558,0.001661375747062,0.8461317199293047
62,1.073500007391,0.474800080061,44.50698925783,0.0001023566001095,0.05212978836962355
63,1.084000006318,0.4851760566235,44.49661328126,-0.0007530892617069,-0.38354521148825327
64,1.094500005245,0.4953918159008,44.48639752199,-2.850539567589e-05,-0.014517678805146343
65,1.105000004172,0.5056475996971,44.47614173819,0.002421722281724,1.233373030182906
66,1.115500003099,0.5161113142967,44.46567802359,0.002204165328294,1.1225721836472333
67,1.125500008464,0.5261935591698,44.45559577872,0.0003829156630673,0.1950173458063088
68,1.135500013828,0.5362567305565,44.44553260733,-0.0001299022114836,-0.06615865304378786
69,1.146000012755,0.546689927578,44.43509941031,-0.0001825331128202,-0.09296335098651341
70,1.156500011683,0.5570353865623,44.42475395132,-0.0002606748021208,-0.1327605865504864
71,1.16700001061,0.5673655867577,44.41442375113,0.002178824041039,1.1096659720282096
72,1.177500009537,0.577824652195,44.40396468569,0.004179277922958,2.128488767979504
73,1.1875,0.5879145264626,44.39387481142,0.005056926514953,2.5754715254631724
74,1.197500005364,0.5981112122536,44.38367812563,0.005414464976639,2.757564368736129
75,1.207500010729,0.6083078980446,44.37348143984,0.004548398312181,2.3164802385102075
76,1.217500001192,0.6184588074684,44.36333053042,0.002790836151689,1.4213611804827742
77,1.227500006557,0.6285334229469,44.35325591494,0.001228240667842,0.625537835499344
78,1.238000005484,0.6389589905739,44.34283034731,0.001276665716432,0.650200510227548
79,1.248500004411,0.6493082642555,44.33248107363,0.001953170401976,0.9947415173608467
80,1.259000003338,0.6596956849098,44.32209365298,0.003375992877409,1.7193790537045548
81,1.269500002265,0.6701632142067,44.31162612368,0.00309766898863,1.577629861129397
82,1.279500007629,0.6802073121071,44.30158202578,0.002509855665267,1.2782589938382094
83,1.289500012994,0.6903620362282,44.29142730166,0.001399450819008,0.7127344494691986
84,1.299500003457,0.7005816102028,44.28120772768,0.0007139155059122,0.36359418149080913
85,1.309500008821,0.710766851902,44.27102248598,0.0001848646643339,0.0941508004216454
86,1.319500014186,0.7208872437477,44.26090209414,0.001150564174168,0.5859775221225011
87,1.329500004649,0.730958044529,44.25083129336,0.002011200413108,1.0242959593427203
88,1.339500010014,0.7410135865211,44.24077575137,0.001932008541189,0.9839638701631712
89,1.349500000477,0.751107275486,44.2306820624,0.001625551260076,0.8278864585291345
90,1.359500005841,0.7611704468727,44.22061889101,0.001193536794744,0.6078632980658063
91,1.370000004768,0.7716494202614,44.21013991763,0.001716239727102,0.8740737155167001
92,1.380500003695,0.7820330262184,44.19975631167,0.002615644130856,1.3321366169441173
93,1.391000002623,0.7924128174782,44.18937652041,0.004361821804196,2.221457603276168
94,1.40150000155,0.8028727173805,44.17891662051,0.005105246324092,2.600080602179104
95,1.411500006914,0.8130274415016,44.16876189638,0.003914464730769,1.9936205166744692
96,1.421500012279,0.8232781887054,44.15851114918,0.001677278196439,0.8542307708912827
97,1.431500002742,0.8334405422211,44.14834879567,0.001203913008794,0.613147860487045
98,1.442000001669,0.8439157009125,44.13787363697,0.001246679341421,0.6349285748406426
99,1.452500000596,0.854156255722,44.12763308216,0.001870352542028,0.9525627276423939
100,1.463000014424,0.8642423152924,44.11754702259,0.004585224669427,2.3352357482438677
101,1.473500013351,0.8745095729828,44.1072797649,0.004138107877225,2.10752103586518
102,1.483500003815,0.8845307826996,44.09725855519,0.003076750552282,1.5669761889804776
103,1.493500009179,0.8946855068207,44.08710383107,0.0004719083081,0.24034092774479393
104,1.503500014544,0.9047906398773,44.07699869801,-0.0005456323851831,-0.2778882918813165
105,1.513500005007,0.9148118495941,44.06697748829,-0.0004254098166712,-0.21665944052172306
106,1.524000003934,0.9251687526703,44.05662058522,0.002342391526327,1.1929702082288367
107,1.534500002861,0.9355065822601,44.04628275563,0.00380753329955,1.9391607859532054
108,1.545000001788,0.9459397792816,44.0358495586,0.004883277695626,2.4870329079976887
109,1.555000007153,0.9560868740082,44.02570246388,0.004974830430001,2.5336603327316425
110,1.565000012517,0.9663484096527,44.01544092823,0.002343643223867,1.1936076925512271
111,1.57500000298,0.9765450954437,44.00524424244,0.0006258969078772,0.31876667761468486
112,1.585000008345,0.9865739345551,43.99521540333,0.0001604442368262,0.0817135788207886
113,1.595500007272,0.9969727993011,43.98481653859,0.001911375438794,0.9734555174032177
114,1.606000006199,1.007352590561,43.97443674733,0.002056795870885,1.047517535303512
115,1.616000011563,1.017358541489,43.9644307964,0.002470347797498,1.258137802009546
116,1.626000002027,1.027562856674,43.95422648121,0.00192305794917,0.9794053710802185
117,1.636000007391,1.037935018539,43.94385431935,0.0006917451391928,0.35230290643944095
118,1.646000012755,1.048337697983,43.9334516399,-0.0005482996930368,-0.27924674061624183
119,1.656000003219,1.058606863022,43.92318247486,-0.001399155938998,-0.712584268313325
120,1.666000008583,1.06865477562,43.91313456227,0.0002598796854727,0.1323556369668711
121,1.67650000751,1.079032659531,43.90275667836,0.00185782648623,0.9461832598097648
122,1.687000006437,1.089347600937,43.89244173695,0.003575393930078,1.8209331759125507
123,1.697500005364,1.099700689316,43.88208864857,0.003550002351403,1.808001351083645
124,1.708000004292,1.110179662704,43.87160967518,0.0027289185673,1.3898268136993537
125,1.718500003219,1.120670080185,43.8611192577,0.001659819856286,0.845339311263988
126,1.729000002146,1.131072759628,43.85071657826,0.002162698656321,1.1014533810293992
127,1.739500001073,1.141471624374,43.84031771351,0.001994881778955,1.015984947214854
128,1.75,1.151939153671,43.82985018422,0.0006464011967182,0.3292094261702981
129,1.760500013828,1.162410497665,43.81937884022,0.001183349639177,0.6026750223392969
130,1.771000012755,1.172889471054,43.80889986683,0.001918811351061,0.977242596423028
131,1.781000003219,1.18292593956,43.79886339833,0.001344878226519,0.6849408563429138
132,1.791000008583,1.192962408066,43.78882692982,0.001946855336428,0.9915252808875235
133,1.80150000751,1.203456640244,43.77833269764,0.002780023962259,1.4158545776237967
134,1.812000006437,1.213901281357,43.76788805653,0.001312080770731,0.6682372492725199
135,1.822500005364,1.224296331406,43.75749300648,0.001311097294092,0.6677363687332807
136,1.833000004292,1.234664678574,43.74712465931,0.001095706596971,0.5580387874762682
137,1.843500003219,1.245101690292,43.73668764759,0.001615585759282,0.8228110706515303
138,1.853500008583,1.255138158798,43.72665117909,0.001569272950292,0.7992241507179967
139,1.863500013947,1.265250921249,43.71653841664,0.002284737303853,1.1636071538388946
140,1.873500004411,1.275432348251,43.70635698964,0.001110108569264,0.5653736517345193
141,1.883500009775,1.28565955162,43.69612978627,0.0007010418921709,0.3570377038511815
142,1.893500000238,1.295772314072,43.68601702381,0.0002297479804838,0.11700968563000662
143,1.903500005603,1.305835485458,43.67595385243,0.0007302332669497,0.3719047489446026
144,1.913500010967,1.315971136093,43.66581820179,0.000969709828496,0.49386916022378385
145,1.923500001431,1.326185703278,43.65560363461,0.00197348347865,1.0050868823594765
146,1.933500006795,1.336378574371,43.64541076352,0.001879250397906,0.9570943684292835
147,1.943500012159,1.346498966217,43.63529037167,0.002496992936358,1.271708059798151
148,1.953500002623,1.356531620026,43.62525771786,0.002878596773371,1.4660572980811999
149,1.96400000155,1.367029666901,43.61475967099,0.002673281123862,1.3614908964380628
150,1.974500000477,1.377508640289,43.6042806976,0.002261040499434,1.1515384704508445
151,1.984500005841,1.387548923492,43.59424041439,0.001993614016101,1.0153392808952306
152,1.994500011206,1.397634983063,43.58415435482,0.0009418602567166,0.47968548978639486
153,2.004500001669,1.407686710358,43.57410262753,0.0005990311037749,0.30508403594102224
154,2.015000000596,1.418123722076,43.56366561581,0.0009682073723525,0.49310396559333003
155,2.025500014424,1.428507328033,43.55328200985,0.002488125814125,1.2671920715281284
156,2.036000013351,1.438913822174,43.54287551571,0.00357084418647,1.818616010520506
157,2.046000003815,1.448969364166,43.53281997372,0.003426690353081,1.7451990660420904
158,2.056000009179,1.459135532379,43.52265380551,0.001958478940651,0.9974451339071531
159,2.066000014544,1.469244480133,43.51254485775,0.001176704419777,0.5992906398898885
160,2.076500013471,1.479738712311,43.50205062558,-0.0001555785711389,-0.07923551563497606
161,2.087000012398,1.490078449249,43.49171088864,-0.001025798963383,-0.522435122051029
162,2.097500011325,1.50027513504,43.48151420285,-0.0002362460072618,-0.12031910349260566
163,2.108000010252,1.510536670685,43.4712526672,0.001656797481701,0.843800028527738
164,2.118500009179,1.521030902863,43.46075843502,0.002562996698543,1.3053234998442458
165,2.128500014544,1.531185626984,43.4506037109,0.002311941934749,1.177462358581579
166,2.138500005007,1.541420459747,43.44036887814,0.002028045011684,1.0328748429515815
167,2.148500010371,1.551598072052,43.43019126583,0.001642849994823,0.8366966317906404
168,2.159000009298,1.562088489532,43.41970084835,0.001406219555065,0.7161817384354574
169,2.169500008225,1.57240152359,43.4093878143,0.0009486644994467,0.4831508621527709
170,2.180000007153,1.582649350166,43.39913998772,0.002297742757946,1.1702307772182727
171,2.19050000608,1.592935681343,43.38885365654,0.003136901650578,1.5976108917843652
172,2.201000005007,1.603353619576,43.37843571831,0.003601713571697,1.834337659317578
173,2.211000010371,1.613401532173,43.36838780571,0.002947001252323,1.5008954131366763
174,2.221000000834,1.623502850533,43.35828648735,0.00273552397266,1.3931909190246967
175,2.231000006199,1.633581280708,43.34820805718,0.001288561499678,0.65625898288531
176,2.241000011563,1.643591046333,43.33819829155,0.001103757298551,0.5621389761220753
177,2.25150001049,1.653989911079,43.32779942681,0.001581756747328,0.8055820963398698
178,2.262000009418,1.664404034615,43.31738530327,0.002519241068512,1.2830389404601374
179,2.271999999881,1.674471020699,43.30731831719,0.002681514713913,1.3656842294172913
180,2.282000005245,1.684599041939,43.29719029595,0.002105257008225,1.0721985898811637
181,2.29200001061,1.694631695747,43.28715764214,0.003357640001923,1.7100320109732043
182,2.302500009537,1.705110669136,43.27667866875,0.004206380341202,2.142291916245989
183,2.3125,1.715131878853,43.26665745903,0.004154835361987,2.1160402738983533
184,2.322500005364,1.725175976753,43.25661336113,0.003749866504222,1.909791328261302
185,2.332500010729,1.73523914814,43.24655018975,0.003453437704593,1.7588213803068946
186,2.342500001192,1.745363354683,43.2364259832,0.002033833879977,1.035823089363546
187,2.352500006557,1.755476117134,43.22631322075,0.001719083986245,0.875522284803237
188,2.363000005484,1.765886425972,43.21590291191,0.002012905199081,1.0251641997091738
189,2.373500004411,1.77612888813,43.20566044976,0.002783272881061,1.417509238382333
190,2.384000003338,1.786319851875,43.19546948601,0.004013155121356,2.0438831198667597
191,2.394500002265,1.79663670063,43.18515263726,0.003842615056783,1.9570277781963472
192,2.405000001192,1.80710041523,43.17468892266,0.001870595267974,0.9526863469515862
193,2.415500000119,1.81759083271,43.16419850518,0.001209698966704,0.616094624653119
194,2.426000013947,1.828008294106,43.15378104378,0.002538309432566,1.292750378526921
195,2.436500012875,1.838399529457,43.14338980843,0.002784431912005,1.418099527994922
196,2.447000011802,1.848790764809,43.13299857308,0.004285634495318,2.1826557254879995
197,2.457500010729,1.859216332436,43.12257300545,0.005415738560259,2.7582129995475335
198,2.468000009656,1.869680047035,43.11210929085,0.00474248919636,2.4153299141139337
199,2.478500008583,1.880117058754,43.10167227913,0.004499183036387,2.29141510437182
200,2.48900000751,1.890561699867,43.09122763802,0.004459221847355,2.271063037919748
201,2.499500006437,1.900998711586,43.0807906263,0.002606709487736,1.3275862405687255
202,2.510000005364,1.911450982094,43.07033835579,0.002770532853901,1.411020795829888
203,2.520500004292,1.921949028969,43.05984030892,0.002410341985524,1.2275770929218504
204,2.530500009656,1.931962609291,43.0498267286,0.002569158561528,1.3084617108929424
205,2.541000008583,1.942313790321,43.03947554757,0.002424170263112,1.234619776866097
206,2.55150000751,1.952537178993,43.02925215889,0.004188110120595,2.132986969298842
207,2.562000006437,1.962825417519,43.01896392037,0.005552400834858,2.827814524464695
208,2.572000011802,1.972842812538,43.00894652535,0.006139983423054,3.127067879300288
209,2.582000002265,1.983100533485,42.9986888044,0.004849840886891,2.4700036811452297
210,2.592000007629,1.993480324745,42.98830901314,0.00203721690923,1.0375460520139121
211,2.602000012994,2.003734111786,42.9780552261,0.0006020860746503,0.3066399198316516
212,2.612500011921,2.014213085175,42.96757625271,-0.0003346008888911,-0.17041083337587395
213,2.623000010848,2.024503231049,42.95728610684,-0.0003328723541927,-0.16953049788289407
214,2.633500009775,2.034781932831,42.94700740506,0.001487036235631,0.7573413358638017
215,2.644000008702,2.045234203339,42.93655513455,0.003035304136574,1.5458677027936942
216,2.654000014067,2.055366039276,42.92642329861,0.003328797407448,1.6953425982298724
217,2.66400000453,2.065528392792,42.91626094509,0.002406951971352,1.2258505728814493
218,2.674000009894,2.075547456741,42.90624188115,0.002437101909891,1.2412058104891248
219,2.684500008821,2.085870027542,42.89591931034,0.003425644943491,1.7446666433099172
220,2.695000007749,2.096143007278,42.88564633061,0.003337877104059,1.6999668497416016
221,2.705500006676,2.106505632401,42.87528370549,0.004231052473187,2.15485732988448
222,2.71550001204,2.116553544998,42.86523579289,0.004109920933843,2.0931655434815104
223,2.725500002503,2.126715898514,42.85507343937,0.003533879527822,1.7997900644611977
224,2.735500007868,2.136840105057,42.84494923283,0.001693049562164,0.8622630614975032
225,2.746000006795,2.147330522537,42.83445881535,0.001927042496391,0.9814346843160753
226,2.756500005722,2.157729387283,42.8240599506,0.001988971838728,1.0129750393732393
227,2.767000004649,2.168093919754,42.81369541813,0.002029909053817,1.0338241918142967
228,2.777500003576,2.178477525711,42.80331181218,0.002755535999313,1.4033829605066541
229,2.788000002503,2.188884019852,42.79290531803,0.003827706212178,1.9494347659893883
230,2.798000007868,2.198912858963,42.78287647892,0.004542034119368,2.313238981726275
231,2.808000013232,2.208972215652,42.77281712223,0.00278226681985,1.4169968556150252
232,2.818500012159,2.219443559647,42.76234577824,0.001687433687039,0.8594029197825254
