,time,travel,position,force,stress
0,0.0,0.0,24.04601147344,-0.01099077239633,-7.22824692261932
1,0.0,0.0,24.04601925185,-0.01104274764657,-7.262429228380205
2,0.0,0.0,24.04598771354,-0.01108456030488,-7.289927952569664
3,0.0,0.0,24.04598851075,-0.01076410338283,-7.079174633593334
4,0.0,0.0,24.0459904181,-0.01070306822658,-7.039033944256253
5,0.0,0.0,24.12354580424,-0.01155566424131,-7.599756548408029
6,0.0,0.0,24.12354130611,-0.01179002970457,-7.753890523481794
7,0.008000001311302,2.181157469749e-06,24.12353912495,-0.01150765269995,-7.568181035462141
8,0.01099999248981,2.134591341019e-06,24.12353917152,-0.01156136021018,-7.603502588083063
9,0.01299999654293,5.918554961681e-06,24.12353538756,-0.01150220260024,-7.56459669534152
10,0.01399999856949,-3.230758011341e-06,24.12354453687,-0.01138323172927,-7.486353711048861
11,0.1145000010729,-2.279444015585e-05,24.12356410055,-0.01071792840958,-7.048806967312865
12,0.2150000035763,-3.850474058709e-06,24.12354515659,-0.01088903658092,-7.161338832073923
13,0.3154999911785,-1.502113775587e-07,24.12354145632,-0.009540371596813,-6.274369002340116
14,0.4155000001192,3.591718950702e-06,24.12353771439,-0.01149254105985,-7.558242637858254
15,0.5074999928474,0.01014088559896,24.11340042051,0.01377662084997,9.060402096593366
16,0.5174999982119,0.02020024321973,24.10334106289,0.05014594271779,32.97923413032773
17,0.52349999547,0.03048848174512,24.09305282437,0.05309518054128,34.918844783063335
18,0.5284999907017,0.04137562587857,24.08216568023,0.04893716052175,32.18426032197549
19,0.5329999923706,0.05262135341763,24.07091995269,0.05408670008183,35.57093253533912
20,0.5370000004768,0.06375236809254,24.05978893802,0.06347143650055,41.74294571985903
21,0.5405000001192,0.0743877440691,24.04915356204,0.07704412937164,50.669231511190034
22,0.5439999997616,0.08599968254566,24.03754162357,0.09739935398102,64.05615140510996
23,0.5469999909401,0.09690971672535,24.02663158939,0.1097131967545,72.15453547889408
24,0.5499999970198,0.1087429076433,24.01479839847,0.1107977330685,72.86779711251293
25,0.5524999946356,0.1191951781511,24.00434612796,0.1074102818966,70.63998885428848
26,0.5549999922514,0.1300289183855,23.99351238773,0.1045187413692,68.73832369690726
27,0.5575000047684,0.141137316823,23.98240398929,0.09965500235558,65.5396125153927
28,0.5600000023842,0.152367785573,23.97117352054,0.09371933341026,61.635930477356595
29,0.5625,0.1635677367449,23.95997356937,0.09090980887413,59.788204371310925
30,0.5649999976158,0.1746303588152,23.9489109473,0.08875641226768,58.37199067563394
31,0.5674999952316,0.1854335814714,23.93810772464,0.08849176764488,58.197943155463236
32,0.5699999928474,0.1958858519793,23.92765545413,0.09548410773277,62.79656087764221
33,0.5724999904633,0.2060329467058,23.91750835941,0.1092322766781,71.8382511508313
34,0.5754999965429,0.2178432494402,23.90569805667,0.1289618909359,84.81372897903462
35,0.5785000026226,0.229386523366,23.89415478275,0.1481116712093,97.40787025851924
36,0.5814999938011,0.2407619506121,23.8827793555,0.1657813489437,109.02859982162074
37,0.5844999998808,0.2520076930523,23.87153361306,0.1814521253109,119.3347218089246
38,0.5874999910593,0.263161867857,23.86037943826,0.1954902112484,128.56708035645332
39,0.590499997139,0.2742473781109,23.849293928,0.205652564764,135.25050513106095
40,0.5935000032187,0.2851879298687,23.83835337624,0.2096084058285,137.85212355875134
41,0.5964999943972,0.2958233058453,23.82771800027,0.2157386243343,141.8837540440054
42,0.5995000004768,0.3060543239117,23.8174869822,0.2302268445492,151.4121501754321
43,0.6030000001192,0.3175670802593,23.80597422585,0.2528251111507,166.27424040244534
44,0.6064999997616,0.3287594020367,23.79478190408,0.2770408093929,182.20005889694062
45,0.609999999404,0.3397838771343,23.78375742898,0.3014243543148,198.2362642871211
46,0.6134999990463,0.3507930934429,23.77274821267,0.3219321668148,211.7235359043804
47,0.6169999986887,0.3618633449078,23.7616779612,0.3402732312679,223.7858130501569
48,0.6204999983311,0.3730556666851,23.75048563943,0.3567222058773,234.6037288265168
49,0.6239999979734,0.3843700587749,23.73917124734,0.3720420300961,244.67904185015706
50,0.6274999976158,0.3957836329937,23.72775767312,0.387163490057,254.62389763339434
51,0.6309999972582,0.4072506129742,23.71629069314,0.4003928601742,263.32439204721493
52,0.6344999969006,0.4187252223492,23.70481608376,0.4125235974789,271.3023540529681
53,0.6379999965429,0.4301082789898,23.69343302712,0.4258063733578,280.0379715699463
54,0.6414999961853,0.4413234889507,23.68221781716,0.4394553601742,289.01443322294705
55,0.6449999958277,0.4523250758648,23.67121623025,0.4545768201351,298.95928900618424
56,0.64849999547,0.463128298521,23.66041300759,0.4718650281429,310.32913926090436
57,0.6519999951124,0.4737560451031,23.64978526101,0.4902976453304,322.4516274407029
58,0.6554999947548,0.4842464625835,23.63929484353,0.5086082220078,334.4938538418243
59,0.6589999943972,0.4946758449078,23.6288654612,0.5269645452499,346.566166159894
60,0.6624999940395,0.5050746798515,23.61846662626,0.5459312200546,359.0398853714003
61,0.6659999936819,0.5155040621758,23.60803724394,0.5645011663437,371.2526901022319
62,0.6694999933243,0.5259639620781,23.59757734403,0.5807517766953,381.94014863825447
63,0.6729999929667,0.5364620089531,23.58707929716,0.5969108343124,392.56739614018926
64,0.676499992609,0.5469753146172,23.5765659915,0.6131156682968,403.22474915920077
65,0.6799999922514,0.5575115084648,23.56602979765,0.6297324895859,414.1530518312459
66,0.6834999918938,0.5680400729179,23.55550123319,0.6462119817734,424.99103795225784
67,0.6869999915361,0.5785610079765,23.54498029814,0.661257147789,434.885717873832
68,0.6904999911785,0.589051425457,23.53448988066,0.6773399114609,445.46278951416934
69,0.6939999908209,0.5995113253593,23.52402998075,0.6949180364609,457.0233080432488
70,0.6974999904633,0.6099559664726,23.51358533964,0.7122367620468,468.41322864262094
71,0.7009999901056,0.6204006075859,23.50314069853,0.7292197942734,479.5823754506885
72,0.7045000046492,0.6308605074883,23.49268079862,0.7463248968124,490.83180363736443
73,0.7080000042915,0.6413280367851,23.48221326933,0.7632011175156,501.9307042391168
74,0.7115000039339,0.6518108248711,23.47173048124,0.780153632164,513.0797807024665
75,0.7150000035763,0.6622783541679,23.46126295194,0.7962516546249,523.666887515097
76,0.7185000032187,0.6727229952812,23.45081831083,0.8130058050156,534.6855067381751
77,0.722000002861,0.6831523776054,23.44038892851,0.8300956487656,545.924899752558
78,0.7255000025034,0.6935588717461,23.42998243437,0.8475822210312,557.4252072476153
79,0.7290000021458,0.7039501070976,23.41959119901,0.8654960393906,569.2064995680652
80,0.7325000017881,0.7143184542656,23.40922285185,0.8827689886093,580.5663146504263
81,0.7360000014305,0.7246715426445,23.39886976347,0.9009879827499,592.5483104175287
82,0.7395000010729,0.7350322604179,23.38850904569,0.9188560247421,604.2994972209675
83,0.7430000007153,0.7453929781914,23.37814832792,0.9357017278671,615.3783274780019
84,0.7465000003576,0.7557460665703,23.36779523954,0.9531425237656,626.848529456114
85,0.75,0.7660991549492,23.35744215116,0.9699577093124,637.9072893684306
86,0.7534999996424,0.776436984539,23.34710432157,0.9869712591171,649.0965065211502
87,0.7569999992847,0.7867595553398,23.33678175077,1.004579901695,660.6770953947503
88,0.7604999989271,0.7970973849297,23.32644392118,1.022295355797,672.3279304751259
89,0.7639999985695,0.807442843914,23.3160984622,1.040346503258,684.1995393466087
90,0.7674999982119,0.8178035616875,23.30573774442,1.057909369469,695.7500227033951
91,0.7709999978542,0.8281719088554,23.29536939726,1.076052069664,707.6818426086369
92,0.7744999974966,0.8385555148125,23.2849857913,1.094087958336,719.5434163078266
93,0.777999997139,0.8489620089531,23.27457929716,1.11192548275,731.2745327665476
94,0.7814999967813,0.8593990206718,23.26414228544,1.129885077477,743.0859306042715
95,0.7849999964237,0.8698512911797,23.25369001493,1.147768378258,754.8471525798719
96,0.7884999960661,0.8803394436836,23.24320186243,1.165652990341,766.6092369529731
97,0.7919999957085,0.8908298611641,23.23271144495,1.184131383896,778.76183064998
98,0.7954999953508,0.9013355374336,23.22220576868,1.202716588974,790.9846705530391
99,0.7989999949932,0.9118488430977,23.21169246301,1.221072912216,803.056982871043
100,0.8024999946356,0.9223621487617,23.20117915735,1.239932775497,815.4604558760368
101,0.805999994278,0.9328907132149,23.1906505929,1.25795340538,827.3119944029332
102,0.8094999939203,0.9433735013008,23.18016780481,1.275226354599,838.6718094854917
103,0.8129999935627,0.9538486599922,23.16969264612,1.292072057724,849.7506397425262
104,0.8164999932051,0.9642551541328,23.15928615198,1.309848546982,861.4416155120746
105,0.8199999928474,0.9746158719063,23.14892543421,1.328082799911,873.4336464510754
106,0.8234999924898,0.9849308133125,23.1386104928,1.346103429794,885.285184977972
107,0.8269999921322,0.9951999783516,23.12834132776,1.363788366318,896.9159497137613
108,0.8304999917746,1.005430936813,23.1181103693,1.381564855576,908.6069254833096
109,0.8339999914169,1.015631437302,23.10790986881,1.400287389755,920.920081937007
110,0.8374999910593,1.025816679001,23.09772462711,1.418338537216,932.79169080849
111,0.8409999907017,1.036017179489,23.08752412662,1.436237096786,944.5629479563837
112,0.844499990344,1.046248197556,23.07729310856,1.453357458115,955.8224113160104
113,0.8479999899864,1.056502103806,23.06703920231,1.471362829208,967.6639146699562
114,0.85150000453,1.066778898239,23.05676240787,1.488559484482,978.9735538910488
115,0.8550000041723,1.077063322067,23.04647798405,1.506503820419,990.7749165558218
116,0.8585000038147,1.087378263474,23.03616304264,1.525394201279,1003.1984599060596
117,0.8620000034571,1.097716093063,23.02582521305,1.544406652451,1015.7022846346426
118,0.8655000030994,1.108084440231,23.01545686588,1.563525915146,1028.2763555692777
119,0.8690000027418,1.118506193161,23.00503511295,1.581805944443,1040.298492025816
120,0.8725000023842,1.128973722458,22.99456758365,1.599200963974,1051.7385884867197
121,0.8760000020266,1.139448881149,22.98409242496,1.617511510849,1063.780795287844
122,0.8795000016689,1.149962186813,22.9735791193,1.636600255966,1076.334795877893
123,0.8830000013113,1.160483121872,22.96305818424,1.65541434288,1088.708163366007
124,0.8865000009537,1.171026945114,22.952514361,1.67396903038,1100.91093292448
125,0.890000000596,1.181563138962,22.94197816715,1.693164587021,1113.5351797212386
126,0.8935000002384,1.192076444626,22.93146486149,1.71173453331,1125.7479844520046
127,0.8969999998808,1.202559232712,22.9209820734,1.730273962021,1137.940718838184
128,0.9004999995232,1.213026762009,22.9105145441,1.749713659286,1150.7255283916336
129,0.9039999991655,1.223486661911,22.9000546442,1.768817663193,1163.2895641546331
130,0.9074999988079,1.233954191208,22.8895871149,1.787219762802,1175.3919819895166
131,0.9109999984503,1.244398832321,22.87914247379,1.80516409874,1187.1933446549474
132,0.9144999980927,1.254828214645,22.86871309147,1.824130773544,1199.6670638659932
133,0.917999997735,1.26525759697,22.85828370914,1.842944860458,1212.0404313541076
134,0.9214999973774,1.27566409111,22.847877215,1.86278128624,1225.0861553891523
135,0.9249999970198,1.286078214645,22.83746309147,1.882022619247,1237.7405077021328
136,0.9284999966621,1.296499967575,22.82704133854,1.900989294052,1250.2142269138362
137,0.9319999963045,1.306929349899,22.81661195621,1.919376134872,1262.3066095764266
138,0.9354999959469,1.317351102829,22.80619020328,1.937427282333,1274.1782184479096
139,0.9389999955893,1.327772855759,22.79576845035,1.954822301865,1285.6183149094709
140,0.9424999952316,1.33816409111,22.785377215,1.973438024521,1297.8612251571162
141,0.945999994874,1.348547697067,22.77499360905,1.993182897568,1310.8467381577443
142,0.9494999945164,1.358908414841,22.76463289127,2.012637853622,1323.6415828834868
143,0.9529999941587,1.369253873825,22.75428743229,2.031741857529,1336.2056186464865
144,0.9564999938011,1.37958407402,22.74395723209,2.051624059677,1349.2814481977532
145,0.9599999934435,1.389914274216,22.7336270319,2.072421789169,1362.9593880892405
146,0.9634999930859,1.400274991989,22.72326631412,2.09259390831,1376.2258859153924
147,0.9669999927282,1.41068148613,22.71285981998,2.112994909286,1389.6429113259417
148,0.9704999923706,1.421126127243,22.70241517887,2.132373571396,1402.3875801908764
149,0.973999992013,1.431616544724,22.69192476139,2.151126623154,1414.720806989818
150,0.9774999916553,1.442129850388,22.68141145572,2.169208288193,1426.612486205887
151,0.9809999912977,1.452650785446,22.67089052067,2.187747716904,1438.8052205920667
152,0.9844999909401,1.463156461716,22.6603848444,2.207721471786,1451.941261177092
153,0.9879999905825,1.473654508591,22.64988679752,2.228702306747,1465.739623136755
154,0.9914999902248,1.484198331833,22.63934297428,2.249805212021,1479.6182664754208
155,0.9950000047684,1.494772672653,22.62876863346,2.26903128624,1492.2625836167658
156,0.9985000044107,1.505369901657,22.61817140446,2.287830114365,1504.625915932587
157,1.002000004053,1.515974760056,22.60756654606,2.308002233505,1517.8924137580811
158,1.005500003695,1.526610136032,22.59693117008,2.327930212021,1530.998348826885
159,1.009000003338,1.537268400192,22.58627290592,2.34666800499,1543.3215404535333
160,1.01250000298,1.547926664352,22.57561464176,2.36619925499,1556.1665610413995
161,1.016000002623,1.558569669724,22.56497163639,2.384509801865,1568.208767842524
162,1.019500002265,1.569174528122,22.55436677799,2.403934240341,1580.98354222368
163,1.023000001907,1.579733610153,22.54380769596,2.423892736435,1594.10954763707
164,1.02650000155,1.590246915817,22.5332943903,2.444782018661,1607.847698562316
165,1.030000001192,1.600744962692,22.52279634342,2.466586828232,1622.1879598284404
166,1.033500000834,1.611243009567,22.51229829655,2.487643957138,1636.0364976495691
167,1.037000000477,1.62174475193,22.50179655418,2.50701546669,1648.7764625270595
168,1.040500000119,1.632235169411,22.4913061367,2.525264978409,1660.7785286390113
169,1.043999999762,1.642702698708,22.4808386074,2.545528650284,1674.1052374989224
170,1.047499999404,1.653147339821,22.47039396629,2.566768884659,1688.0741973882266
171,1.050999999046,1.663607239723,22.45993406639,2.586727380753,1701.2002028016168
172,1.054499998689,1.674051880836,22.44948942528,2.606640100479,1714.2961026974695
173,1.057999998331,1.684511780739,22.43902952537,2.627376794815,1727.9339018997841
174,1.061499997973,1.694964051247,22.42857725487,2.64715218544,1740.9394852449984
175,1.064999997616,1.70540869236,22.41813261375,2.667034387589,1754.0153147969227
176,1.068499997258,1.715853333473,22.40768797264,2.687420129776,1767.422305035179
177,1.071999996901,1.726290345192,22.39725096092,2.708477258682,1781.2708428563076
178,1.075499996543,1.736780762672,22.38676054344,2.72935128212,1794.9989586099184
179,1.078999996185,1.747294068336,22.37624723778,2.748470544815,1807.5730295445535
180,1.082499995828,1.757815003395,22.36572630272,2.767849206924,1820.3176984088304
181,1.08599999547,1.768351197243,22.35519010887,2.788784265518,1834.0859548516137
182,1.089499995112,1.778910279274,22.34463102684,2.811107873917,1848.7674119770209
183,1.092999994755,1.789522767067,22.33401853905,2.831997156143,1862.5055629022672
184,1.096499994397,1.800173401833,22.32336790428,2.851024866104,1875.0194228031432
185,1.09999999404,1.810846924782,22.31269438133,2.870983362198,1888.1454282165332
186,1.103499993682,1.821528077126,22.30201322899,2.890667200089,1901.090800527989
187,1.106999993324,1.832178711891,22.29136259422,2.910564661026,1914.1766652515485
188,1.110499992967,1.842821717262,22.28071958885,2.931850671768,1928.1757306577324
189,1.113999992609,1.853449463844,22.27009184227,2.952846765518,1941.9841277896885
190,1.117499992251,1.864077210426,22.25946409569,2.974071741104,1955.9430525066994
191,1.120999991894,1.874697327614,22.2488439785,2.99480843544,1969.5808517090138
192,1.124499991536,1.885302186012,22.2382391201,3.014965295792,1982.8373143628728
193,1.127999991179,1.895891785622,22.22764952049,3.036556482315,1997.0370832155775
194,1.131499990821,1.906473755836,22.21706755028,3.058132410049,2011.2268168959893
195,1.134999990463,1.91707098484,22.20647032127,3.078777551651,2024.8044050645449
196,1.138499990106,1.927675843239,22.19586546287,3.098568201065,2037.8200235820523
197,1.142000004649,1.938273072243,22.18526823387,3.11785531044,2050.50448141257
198,1.145500004292,1.948847413063,22.17469389305,3.138118982315,2063.831190272481
199,1.149000003934,1.959383606911,22.1641576992,3.15838265419,2077.157899132392
200,1.152500003576,1.969866394997,22.15367491112,3.180065393448,2091.4178790195133
201,1.156000003219,1.980349183083,22.14319212303,3.201931238174,2105.798280974153
202,1.159500002861,1.990839600563,22.13270170555,3.222805261612,2119.5263967277638
203,1.163000002503,2.001345396042,22.12219591007,3.24497628212,2134.107502129582
204,1.166500002146,2.011873960495,22.11166734562,3.265941858292,2147.8958289169514
205,1.170000001788,2.022425413132,22.10111589298,3.286586999893,2161.473417084849
206,1.173500001431,2.032984495163,22.09055681095,3.307766199112,2175.402236284981
207,1.177000001073,2.043551206589,22.07999009952,3.328762292862,2189.210633416937
208,1.180500000715,2.05411028862,22.06943101749,3.350124597549,2203.2598746845865
209,1.184000000358,2.064646482468,22.05889482364,3.371074914932,2217.038166299663
210,1.1875,2.075159788132,22.04838151798,3.392879724503,2231.3784275657877
211,1.190999999642,2.085650205612,22.0378911005,3.415691614151,2246.381010205234
212,1.194499999285,2.096132993698,22.02740831241,3.438183069229,2261.172854225866
213,1.197999998927,2.106653928757,22.01688737736,3.460445642471,2275.8141706614433
214,1.201499998569,2.117213010788,22.00632829532,3.481868982315,2289.903552618923
215,1.204999998212,2.127794981003,21.99574632511,3.503154993057,2303.902618025107
216,1.208499997854,2.138392210007,21.98514909611,3.525310754776,2318.473688254632
217,1.211999997497,2.149012327194,21.97452897892,3.546306848526,2332.2820853865883
218,1.215499997139,2.159624814987,21.96391649113,3.567791223526,2346.4116080332406
219,1.218999996781,2.170229673386,21.95331163273,3.590206384659,2361.1532761924072
220,1.222499996424,2.180849790573,21.94269151554,3.612789392471,2376.0053312467985
221,1.225999996066,2.191462278366,21.93207902775,3.634960412979,2390.586436648616
222,1.229499995708,2.202074766159,21.92146653995,3.656856775284,2404.9869089485
223,1.232999995351,2.212694883347,21.91084642277,3.679500818253,2419.8791046927217
224,1.236499994993,2.223315000534,21.90022630558,3.701946496964,2434.6408431964746
225,1.239999994636,2.233935117722,21.88960618839,3.724209070206,2449.2821596320514
226,1.243499994278,2.24453997612,21.87900132999,3.746975183487,2464.2546367546183
227,1.24699999392,2.255137205124,21.86840410099,3.769115686417,2478.8156718118503
228,1.250499993563,2.265726804733,21.85781450138,3.790401697159,2492.8147372180338
229,1.253999993205,2.276270627975,21.84727067814,3.812420129776,2507.295490896263
230,1.257499992847,2.286806821823,21.83673448429,3.834453821182,2521.7862797467847
231,1.26099999249,2.297304868698,21.82623643741,3.856609582901,2536.3573499763097
232,1.264499992132,2.30778002739,21.81576127872,3.878872156143,2550.998666411887
233,1.267999991775,2.318239927292,21.80530137882,3.901607751846,2565.951073189867
234,1.271499991417,2.328715085983,21.79482622013,3.924679040909,2581.124253759613
235,1.274999991059,2.339190244675,21.78435106144,3.946880578995,2595.7254295060175
236,1.278499990702,2.34968829155,21.77385301456,3.969036340714,2610.2964997355425
237,1.281999990344,2.360193967819,21.76334733829,3.991146326065,2624.8374644475302
238,1.285499989986,2.370692014694,21.75284929142,4.013973712921,2639.850239059114
239,1.28900000453,2.381204366684,21.74233693943,4.036648273468,2654.762505147922
240,1.292500004172,2.391725301743,21.73181600437,4.059872150421,2670.036037440599
