,time,travel,position,force,stress
0,0.0,0.0,16.96967105443,-0.003997719846666,-2.2092252593523187
1,0.0,0.0,16.96966749305,-0.003961837850511,-2.1893961029076223
2,0.0,0.0,16.96967539066,-0.003862195182592,-2.134331439219521
3,0.0,0.0,16.96966749305,-0.003846906591207,-2.125882637511761
4,0.0,0.0,16.96966451282,-0.003804348874837,-2.1023643356819406
5,0.0,0.0,17.10461403196,-0.002753378124908,-1.5215754818757024
6,0.0,0.0,17.10461163397,-0.002799795707688,-1.5472268282153352
7,0.008000001311302,4.464294761419e-06,17.10460716968,-0.00317477225326,-1.754446865615707
8,0.01099999248981,3.701541572809e-06,17.10460793243,-0.00326426862739,-1.803904470933732
9,0.01299999654293,9.671784937382e-07,17.10461066679,-0.003255543066189,-1.7990825396962666
10,0.01399999856949,2.412591129541e-06,17.10460922138,-0.003240880323574,-1.7909795953682754
11,0.1145000010729,-1.920071326822e-06,17.10461355404,-0.00481091439724,-2.658613913585806
12,0.2149999886751,2.806889460771e-05,17.10458356508,-0.001564135891385,-0.8643748568797593
13,0.3149999976158,8.039321983233e-05,17.10453124075,-0.004075640812516,-2.252286047149271
14,0.3969999998808,0.01009133923799,17.09452029473,0.00454576080665,2.512084383651906
15,0.4159999936819,0.0203156825155,17.08429595145,0.01764471642673,9.75084666239182
16,0.426499992609,0.03080609999597,17.07380553397,0.02849043719471,15.744423299955862
17,0.4340000003576,0.04087308421731,17.06373854975,0.02221907489002,12.27873472109616
18,0.4409999996424,0.05147412791848,17.05313750605,0.01842917315662,10.184354183932435
19,0.4474999904633,0.06194165721536,17.04266997676,0.0164588522166,9.095512805176698
20,0.4539999961853,0.07269147783518,17.03192015614,0.0175666641444,9.707713306307017
21,0.4604999870062,0.0834870710969,17.02112456287,0.01559970993549,8.620732454975643
22,0.4669999927282,0.09391263872385,17.01069899525,0.01627183519304,8.992163208850629
23,0.473999992013,0.1043763533235,17.00023528065,0.01147437561303,6.340984714259797
24,0.4814999997616,0.1143823042512,16.99022932972,0.02510619722307,13.874220105179191
25,0.4895000010729,0.1245561018586,16.98005553211,0.03899932280183,21.551857642873994
26,0.497499987483,0.1349625885487,16.96964904542,0.04730391874909,26.141154501857848
27,0.5049999952316,0.1452470123768,16.95936462159,0.05402732267976,29.856650925363436
28,0.5119999945164,0.1553445160389,16.94926711793,0.05341005697846,29.51553673243642
29,0.5189999938011,0.165613681078,16.93899795289,0.05202627554536,28.750829596198045
30,0.5259999930859,0.1756158173084,16.92899581666,0.05094188824296,28.151574042715247
31,0.5335000008345,0.1856179535389,16.91899368043,0.05267495289445,29.109302535709922
32,0.5419999957085,0.1958794891834,16.90873214479,0.05623692646623,31.077725109013677
33,0.5520000010729,0.2062955200672,16.8983161139,0.05894917622209,32.57657217687793
34,0.5639999955893,0.2164044678211,16.88820716615,0.07193440943956,39.752489030216225
35,0.5769999921322,0.2266755402088,16.87793609376,0.08884877711535,49.09972939436813
36,0.5879999995232,0.2367045283318,16.86790710564,0.09363694489002,51.7457730391322
37,0.5979999899864,0.246962249279,16.85764938469,0.09663243591785,53.40114527547444
38,0.607499986887,0.2573382258415,16.84727340813,0.09874434769154,54.56823276907422
39,0.6169999986887,0.2677180171013,16.83689361687,0.1008927375078,55.75547880708141
40,0.626999989152,0.2781664729118,16.82644516106,0.1070410758257,59.15318170671714
41,0.6374999880791,0.2884718775749,16.8161397564,0.1148554831743,63.471589890270344
42,0.64849999547,0.298870742321,16.80574089165,0.1240164786577,68.53415140008158
43,0.6594999879599,0.3092982172966,16.79531341667,0.1324202567339,73.17825841909037
44,0.669999986887,0.3196856379509,16.78492599602,0.1396414786577,77.16885968414708
45,0.6799999922514,0.3299738764763,16.77463775749,0.1438166648149,79.47615661208887
46,0.6899999976158,0.3403918147087,16.76421981926,0.1497771292925,82.77003642019197
47,0.6999999880791,0.3506342768669,16.7539773571,0.1550299674273,85.67286681746639
48,0.7104999870062,0.3610312342644,16.74358039971,0.1618601828814,89.44738956712844
49,0.7210000008345,0.3711058497429,16.73350578423,0.1696631461382,93.75947350144841
50,0.7319999933243,0.3815714716911,16.72304016228,0.179648116231,99.27738095594098
51,0.7424999922514,0.3918349146843,16.71277671929,0.187026694417,103.35494064792687
52,0.7524999976158,0.4019019007683,16.7027097332,0.1949193030596,107.71656453459215
53,0.7624999880791,0.4121405482292,16.69247108574,0.2015778571367,111.3962235457559
54,0.7724999934435,0.422348678112,16.68226295586,0.2089554816484,115.47325621698154
55,0.7824999988079,0.4325148463249,16.67209678765,0.2158429175615,119.27940021280969
56,0.7924999892712,0.442555129528,16.66205650444,0.2230259925127,123.24892064712586
57,0.8029999881983,0.4529883265495,16.65162330742,0.2310807257891,127.70013806457668
58,0.8134999871254,0.4634711146355,16.64114051933,0.2403008490801,132.79537486207445
59,0.8234999924898,0.4735915064812,16.63102012749,0.2481801062822,137.14962045793084
60,0.8334999978542,0.483667999506,16.62094363446,0.2554133236408,141.1468506561228
61,0.8439999967813,0.4941355288029,16.61047610517,0.2641356289387,145.96698261208607
62,0.8544999957085,0.5045610666275,16.60005056734,0.2727816402912,150.74495290645766
63,0.8649999946356,0.515051484108,16.58956014986,0.2803786098957,154.94320035463494
64,0.875,0.5251489877701,16.5794626462,0.2881567776203,159.24158174896803
65,0.8849999904633,0.5352846384048,16.56932699557,0.2963373959064,163.76236590792902
66,0.8949999958277,0.545382142067,16.5592294919,0.3062384426594,169.23389553474811
67,0.9054999947548,0.5558725595474,16.54873907442,0.3162310421467,174.75601915537777
68,0.9159999936819,0.5662313699722,16.538380264,0.3263705074787,180.35930397446356
69,0.926499992609,0.5764909982681,16.5281206357,0.3363669216633,185.88353567818936
70,0.9369999915361,0.5868097543716,16.5178018796,0.3461554348469,191.29287685419672
71,0.9474999904633,0.5972429513931,16.50736868258,0.3553316891193,196.3638706962821
72,0.9574999958277,0.6072565317154,16.49735510225,0.3654120266438,201.9344802277366
73,0.9675000011921,0.6173273324966,16.48728430147,0.3751185238361,207.2984976175357
74,0.9774999916553,0.627428650856,16.47718298311,0.3844740688801,212.46857136431169
75,0.9874999970198,0.6374880075455,16.46712362642,0.3932440578938,217.31505435872828
76,0.9979999959469,0.647936463356,16.45667517061,0.4022600948811,222.2975087116038
77,1.008499994874,0.6582819223404,16.44632971163,0.4116614162922,227.4928794552574
78,1.018999993801,0.6685358285904,16.43607580538,0.421833306551,233.1140829805224
79,1.029499992728,0.6787801980972,16.42583143587,0.4331782162189,239.38352205197143
80,1.039999991655,0.6891523599625,16.41545927401,0.4448664486408,245.84268860041703
81,1.04999999702,0.6991964578629,16.40541517611,0.4553454220295,251.63359281340328
82,1.059999987483,0.7093321084976,16.39527952547,0.4654105007648,257.19577001247313
83,1.069999992847,0.7194448709488,16.38516676302,0.4768278896809,263.5052626624729
84,1.079999998212,0.7295118570328,16.37509977694,0.4871905148029,269.2318703415512
85,1.090499997139,0.7400010824203,16.36461055155,0.4998163878918,276.2091971226254
86,1.100499987602,0.7500184774399,16.35459315653,0.5121188163757,283.0077815158449
87,1.110499992967,0.7601312398911,16.34448039408,0.5235095024109,289.3025175842821
88,1.120499998331,0.7703202962875,16.33429133768,0.5337080955505,294.9384776910544
89,1.130499988794,0.7804902791977,16.32412135477,0.5440993309021,300.68089599327106
90,1.140499994159,0.7905420064926,16.31406962748,0.5544486045837,306.4001253815957
91,1.150999993086,0.800944685936,16.30366694803,0.5661177635193,312.84875151467105
92,1.161499992013,0.8112691640854,16.29334246988,0.5798316001892,320.42731017706507
93,1.17199999094,0.8216985464096,16.28291308756,0.5932478904724,327.84143835945065
94,1.181999996305,0.8317922353745,16.2728193986,0.6060309410095,334.9056247510234
95,1.191999986768,0.8419851064682,16.2626265275,0.6182951927185,341.68311184411573
96,1.201999992132,0.8521856069565,16.25242602701,0.6309103965759,348.65454258028643
97,1.211999997497,0.8622907400131,16.24232089396,0.6423449516296,354.97352160408076
98,1.222499996424,0.8727506399155,16.23186099405,0.6562190055847,362.64061975573986
99,1.232999995351,0.8831685781479,16.22144305582,0.6721529960632,371.44608276904705
100,1.243000000715,0.8931745290756,16.21143710489,0.6860499382019,379.1258294191726
101,1.252999991179,0.9032338857651,16.20137774821,0.6989512443542,386.2553663861185
102,1.262999996543,0.9133237600327,16.19128787394,0.7116465568542,393.27106686692173
103,1.272999987006,0.923352599144,16.18125903483,0.7253413200378,400.83908511394554
104,1.283500000834,0.93379342556,16.17081820841,0.7387614250183,408.25532137942724
105,1.293999999762,0.9441503286362,16.16046130533,0.7537989616394,416.56538486961284
106,1.304499998689,0.9545034170151,16.15010821696,0.769820690155,425.41933379368965
107,1.314999997616,0.9648755788803,16.13973605509,0.7854266166687,434.04350166238487
108,1.325499996543,0.9752477407455,16.12936389322,0.8009295463562,442.6107512879811
109,1.33599999547,0.9856432676315,16.11896836634,0.8162567615509,451.0808973368343
110,1.346499994397,0.9960650205612,16.10854661341,0.8329803943634,460.32273354712316
111,1.356499999762,1.006093859673,16.0985177743,0.8475067615509,468.3503139049653
112,1.366499990225,1.016244769096,16.08836686487,0.8631088733673,476.9723736905644
113,1.376499995589,1.026502490044,16.07810914393,0.8790199756622,485.76518820540514
114,1.386500000954,1.036714434624,16.06789719935,0.8946259021759,494.3893560741003
115,1.396499991417,1.046811938286,16.05779969568,0.9103500843048,503.0788745181687
116,1.406999990344,1.057268023491,16.04734361048,0.9286949634552,513.2166460362575
117,1.417499989271,1.067632555962,16.03697907801,0.9463646411896,522.981286849697
118,1.427999988198,1.077962756157,16.02664887781,0.9638130664825,532.6236588446092
119,1.438499987125,1.088403582573,16.0162080514,0.9827644824982,543.0966155720035
120,1.44849999249,1.098539233208,16.00607240076,0.9997704029083,552.4944499299714
121,1.458499997854,1.108812212944,15.99579942103,1.01703953743,562.037742020414
122,1.468499988317,1.119108080864,15.98550355311,1.034335374832,571.5957906920876
123,1.478499993682,1.129304766655,15.97530686732,1.051886796951,581.2950809300434
124,1.488499999046,1.139329791069,15.9652818429,1.069228410721,590.8784265990919
125,1.498999997973,1.149709582329,15.95490205164,1.089343309402,601.9943486646258
126,1.509499996901,1.160123705864,15.94448792811,1.107440233231,611.9950947831775
127,1.519499987364,1.170163989067,15.9344476449,1.126029253006,622.2677836179839
128,1.529499992728,1.180387377739,15.92422425623,1.144171953201,632.2938267328052
129,1.539499998093,1.190763354301,15.91384827967,1.161624193192,641.9383068112555
130,1.549499988556,1.201078295708,15.90353333826,1.178412675858,651.2159804338476
131,1.55949999392,1.211221575737,15.89339005823,1.198611497879,662.3782803271655
132,1.569499999285,1.221242785454,15.88336884852,1.218272447586,673.2433405068538
133,1.579999998212,1.231687426567,15.8729242074,1.23961186409,685.0359572405634
134,1.590499997139,1.242131233215,15.86248040076,1.259811639786,696.1987841550284
135,1.600999996066,1.252621650696,15.85198998327,1.279110193253,706.8635764425155
136,1.611499994993,1.263089179993,15.84152245398,1.29754281044,717.0498338710977
137,1.62199999392,1.273480415344,15.83113121863,1.317165613174,727.8938132198243
138,1.632499992847,1.283833503723,15.82077813025,1.336174249649,738.3983911935505
139,1.642999991775,1.294213294983,15.81039833899,1.357990503311,750.4545183117935
140,1.653499990702,1.304692268372,15.7999193656,1.378364801407,761.7137900270927
141,1.663499996066,1.314732551575,15.7898790824,1.397693872452,772.3954469791281
142,1.673500001431,1.324788093567,15.7798235404,1.415886163712,782.4488951742547
143,1.683499991894,1.334797859192,15.76981377478,1.436271905899,793.7144911383451
144,1.693999990821,1.345215797424,15.75939583655,1.455177545547,804.1621508685303
145,1.704499989748,1.355549812317,15.74906182165,1.475647211075,815.4741246609574
146,1.714999988675,1.365864753723,15.73874688025,1.495849847794,826.6385326377583
147,1.725499987602,1.376210212708,15.72840142126,1.517193078995,838.4332574543984
148,1.736000001431,1.386654853821,15.71795678015,1.538509607315,850.2132256894204
149,1.745999991894,1.396824836731,15.70778679724,1.558487176895,861.2532567644873
150,1.755999997258,1.407086372375,15.69752526159,1.578830957413,872.4956638152383
151,1.765999987721,1.417313575745,15.68729805823,1.599083185196,883.687476871792
152,1.775999993086,1.427441596985,15.67717003699,1.619449853897,894.9425324206779
153,1.78599999845,1.43749332428,15.66711830969,1.639164209366,905.8371057636019
154,1.796499997377,1.447869300842,15.65674233313,1.660999536514,917.9037732970494
155,1.806999996305,1.458291053772,15.6463205802,1.683613061905,930.4004897786873
156,1.816999986768,1.468415260315,15.63619637366,1.704296350479,941.830516222952
157,1.826999992132,1.478699684143,15.62591194983,1.724460840225,952.9738433687913
158,1.836999997497,1.489012002945,15.61559963103,1.744550228119,964.0756676292795
159,1.84699998796,1.499223947525,15.60538768645,1.764802455902,975.2674806858331
160,1.856999993324,1.509268045425,15.59534358854,1.78521490097,986.5478332315414
161,1.867499992251,1.519636392593,15.58497524138,1.807507991791,998.8674707348703
162,1.877999991179,1.529869318008,15.57474231596,1.829961299896,1011.275647726801
163,1.888499990106,1.540174722672,15.5644369113,1.852666378021,1023.8229582020838
164,1.89849999547,1.550176858902,15.55443477507,1.873048305511,1035.0864460832438
165,1.908500000834,1.560281991959,15.54432964201,1.893220424652,1046.2339893954966
166,1.918499991298,1.570402383804,15.53420925017,1.913693904877,1057.5480712708538
167,1.928499996662,1.580526590347,15.52408504362,1.934716701508,1069.1657171091847
168,1.938499987125,1.590578317642,15.51403331633,1.955785274506,1080.808659944338
169,1.949000000954,1.601061105728,15.50355052824,1.978597164154,1093.4149967455396
170,1.959499999881,1.611551523209,15.49306011076,2.001584529877,1106.1183053687223
171,1.969499990344,1.621572732925,15.48303890104,2.021863460541,1117.324875006894
172,1.979999989271,1.632055521011,15.47255611296,2.043759822845,1129.4252718694377
173,1.990499988198,1.642488718033,15.46212291594,2.065289974213,1141.323292757403
174,2.000999987125,1.652910470963,15.45170116301,2.088887691498,1154.3638946726555
175,2.011500000954,1.663336038589,15.44127559538,2.110738277435,1166.438994538377
176,2.021999999881,1.673769235611,15.43084239836,2.134198665619,1179.4037054631629
177,2.032499998808,1.684267282486,15.42034435148,2.15679693222,1191.8919896119742
178,2.042499989271,1.694322824478,15.41028880949,2.178426265717,1203.8448206599974
179,2.052499994636,1.704382181168,15.4002294528,2.199567317963,1215.5278170735908
180,2.0625,1.714414834976,15.39019679899,2.221189022064,1227.4764319546478
181,2.072999998927,1.724909067154,15.37970256682,2.24421453476,1240.2008214087925
182,2.083499997854,1.735402345657,15.36920928831,2.26709318161,1252.8440496637622
183,2.093999996781,1.745858430862,15.35875320311,2.289046764374,1264.9760677730249
184,2.104499995708,1.756167650223,15.34844398375,2.312995433807,1278.210613331135
185,2.114999994636,1.766461610794,15.33815002318,2.335288524628,1290.530250834464
186,2.125499993563,1.776837587357,15.32777404661,2.358176708221,1303.178749297036
187,2.13599999249,1.787263154984,15.31734847899,2.381774425507,1316.2193512128413
188,2.145999997854,1.797299623489,15.30731201048,2.40491437912,1329.0069831587655
189,2.155999988317,1.807477235794,15.29713439818,2.425872325897,1340.588791584517
190,2.165999993682,1.81768155098,15.28693008299,2.448783397675,1353.249938546329
191,2.175999999046,1.827790498734,15.27682113524,2.47147321701,1365.788816688785
192,2.186499997973,1.83825802803,15.26635360594,2.495719432831,1379.187792727622
193,2.196999996901,1.848603487015,15.25600814696,2.518615245819,1391.8405073566073
194,2.207499995828,1.858924150467,15.2456874835,2.54350233078,1405.5936413520628
195,2.217999994755,1.869288682938,15.23532295103,2.567389965057,1418.7944575810764
196,2.228000000119,1.879298448563,15.22531318541,2.58956861496,1431.0508525920732
197,2.237999990582,1.8894302845,15.21518134947,2.611190319061,1442.9994674731302
198,2.247999995947,1.899554491043,15.20505714293,2.634948253632,1456.12860887809
199,2.258000001311,1.90957570076,15.19503593321,2.657638072968,1468.6674870210989
200,2.268500000238,1.920008897781,15.18460273619,2.681006908417,1481.5816039516872
201,2.278999999166,1.930400133133,15.17421150084,2.704566478729,1494.6011250359784
202,2.289499998093,1.940787553787,15.16382408018,2.727874279022,1507.4815126374704
203,2.29999999702,1.951171159744,15.15344047423,2.751052379608,1520.290225414356
204,2.310499995947,1.961547136307,15.14306449766,2.774802684784,1533.4151506529026
205,2.320999994874,1.971942186356,15.13266944761,2.797614574432,1546.021487454104
206,2.331499993801,1.982341051102,15.12227058287,2.821509838104,1559.226519849531
207,2.341999992728,1.992722153664,15.11188948031,2.845173835754,1572.3037497082553
208,2.352499991655,2.003124952316,15.10148668165,2.86860370636,1585.2515959684927
209,2.362999990582,2.013577222824,15.09103441115,2.893223762512,1598.857164148322
210,2.37349998951,2.024006605148,15.08060502882,2.918126106262,1612.6187304760513
211,2.383999988437,2.034390211105,15.07022142287,2.942669868469,1626.1821369945098
212,2.394499987364,2.044834852219,15.05977678175,2.965962409973,1639.0540922637279
213,2.405000001192,2.05531001091,15.04930162306,2.989216804504,1651.904966701984
214,2.414999991655,2.065338850021,15.03927278395,3.011937141418,1664.4607095095407
215,2.42499999702,2.075405836105,15.02920579787,3.035489082336,1677.4760144279712
216,2.434999987483,2.0854575634,15.01915407057,3.057698249817,1689.749274103516
217,2.445500001311,2.09587931633,15.00873231764,3.083523750305,1704.0209965357637
218,2.456000000238,2.106289625168,14.9983220088,3.109288215637,1718.2589896389152
219,2.466499999166,2.116753339767,14.9878582942,3.134045600891,1731.9404488097641
220,2.476499989629,2.126824140549,14.97778749342,3.156903266907,1744.5720826083405
221,2.486499994993,2.136986494064,14.96762513991,3.181401252747,1758.110192129977
222,2.496500000358,2.147213697433,14.95739793654,3.205563545227,1771.4627903404773
223,2.506499990821,2.157376050949,14.94723558302,3.231328010559,1785.7007834436286
224,2.516499996185,2.167439222336,14.93717241163,3.257306098938,1800.0568291991701
225,2.526499986649,2.177441358566,14.9271702754,3.28184223175,1813.6160195512155
226,2.536499992013,2.187462568283,14.91714906569,3.305340766907,1826.6018113069629
227,2.546499997377,2.197502851486,14.90710878248,3.329243659973,1839.8110598682508
228,2.556499987841,2.207550764084,14.89706086989,3.352665901184,1852.7546899620747
229,2.566999986768,2.218037366867,14.8865742671,3.377591133118,1866.5289047884917
230,2.577500000596,2.228466749191,14.87614488478,3.405087471008,1881.7239676083475
231,2.587999999523,2.238898277283,14.86571335669,3.431626081467,1896.389769821334
232,2.59849999845,2.249320030212,14.85529160376,3.455933332443,1909.822475188715
233,2.608999997377,2.259810447693,14.84480118628,3.482125043869,1924.2965735966468
234,2.618999987841,2.269896507263,14.83471512671,3.505348920822,1937.1305833703548
235,2.628999993205,2.279940605164,14.82467102881,3.528435468674,1949.8887021535957
236,2.639499992132,2.290320396423,14.81429123755,3.553421735764,1963.6966463091092
237,2.649999991059,2.300597190857,14.80401444311,3.580063581467,1978.4194985199563
238,2.660499989986,2.310807228088,14.79380440588,3.605606794357,1992.5352228043039
239,2.670999988914,2.321026802063,14.78358483191,3.630402326584,2006.2377628061145
240,2.681499987841,2.331379890442,14.77323174353,3.654549360275,2019.5819286843407
