,time,travel,position,force,stress
0,0.0,0.0,28.55916335375,-0.006177918054163,-3.4140492928357813
1,0.0,0.0,28.55916359962,-0.006198124028742,-3.4252155453852158
2,0.0,0.0,28.55915616394,-0.005898402072489,-3.2595827992364734
3,0.0,0.0,28.55914734245,-0.005887241102755,-3.2534150092959697
4,0.0,0.0,28.55914700718,-0.005796642042696,-3.2033480362130895
5,0.0,0.0,28.64353176409,-0.004472270142287,-2.4714718749557996
6,0.0,0.0,28.64352753704,-0.004378750454634,-2.4197909007669627
7,0.008000001311302,7.627531886101e-06,28.64351990951,-0.005235671531409,-2.8933437660738055
8,0.01100000739098,8.052214980125e-06,28.64351948483,-0.005634784232825,-3.113901958022125
9,0.01300001144409,1.254118978977e-05,28.64351499585,-0.005865811835974,-3.241572739382667
10,0.01400001347065,1.444853842258e-05,28.6435130885,-0.005921482574195,-3.2723375767904694
11,0.1145000010729,-1.056339806382e-05,28.64353810044,-0.005034742411226,-2.7823060484063404
12,0.2145000100136,9.581391168467e-06,28.64351795565,-0.004903369117528,-2.7097063640927983
13,0.315000012517,-1.655186861171e-05,28.64354408891,-0.003236452583224,-1.788532731606366
14,0.4155000001192,1.753674951033e-05,28.64351000029,-0.003139881882817,-1.7351657026910168
15,0.5155000090599,0.00718503119424,28.63634250585,0.007913091219962,4.3729429958126005
16,0.5265000015497,0.0173759944737,28.62615154257,0.06548450142145,36.188132281708384
17,0.5320000052452,0.02756505087018,28.61596248617,0.0772528424859,42.691568574758925
18,0.5365000069141,0.03878789022565,28.60473964682,0.0987601056695,54.576940963815424
19,0.5400000065565,0.04969792440534,28.59382961264,0.118901707232,65.70761961124362
20,0.5430000126362,0.06074528768659,28.58278224936,0.1249975934625,69.07633636856964
21,0.545500010252,0.07113652676344,28.57239101028,0.1243731752038,68.73126951985805
22,0.5480000078678,0.08251958340406,28.56100795364,0.1206195130944,66.65691577191444
23,0.5505000054836,0.09481816738844,28.54870936965,0.1151187196374,63.6170599746606
24,0.5525000095367,0.1052704378963,28.53825709915,0.1111933961511,61.44784248827394
25,0.5545000135899,0.1161652132869,28.52736232376,0.108549810946,59.9869409157869
26,0.5565000027418,0.1275024861097,28.51602505093,0.106840826571,59.04251969721724
27,0.5585000067949,0.1392517536879,28.50427578335,0.1059386506677,58.54395804947908
28,0.560500010848,0.1513824909925,28.49214504605,0.1056508794427,58.384929532331995
29,0.5625,0.1638641804457,28.4796633566,0.1050059571862,58.028531737082155
30,0.5645000040531,0.1766663044691,28.46686123257,0.1022650972009,56.513874046168006
31,0.5665000081062,0.1897583454847,28.45376919156,0.0977790132165,54.03476834740882
32,0.5685000121593,0.2030640095472,28.4404635275,0.09202644973993,50.855779067040714
33,0.5700000077486,0.2131500691175,28.43037746793,0.08601448684931,47.533440137432336
34,0.5715000033379,0.2232971638441,28.4202303732,0.07966683059931,44.02558989703073
35,0.5730000138283,0.2334442585707,28.41008327847,0.07486794143915,41.37362138595581
36,0.5745000094175,0.2435913532972,28.39993618375,0.07141945511103,39.467914284201925
37,0.5760000050068,0.253738462925,28.38978907412,0.06845162063837,37.82782565016593
38,0.577500000596,0.2638092637062,28.37971827334,0.06679413467646,36.91186355314023
39,0.5795000046492,0.2771301865578,28.36639735048,0.06844184547663,37.82242368728244
40,0.5815000087023,0.2903290390968,28.35319849795,0.07337043434381,40.54606702297474
41,0.5835000127554,0.3034515976906,28.34007593935,0.07538364082575,41.658607866951805
42,0.5855000019073,0.3164520859718,28.32707545107,0.07023761421442,38.81480379585595
43,0.5875000059605,0.3292694687843,28.31425806826,0.06254718452692,34.56490831229247
44,0.5895000100136,0.3417969346046,28.30173060244,0.0580878034234,32.10055919508483
45,0.5915000140667,0.3540039658546,28.28952357119,0.058852173388,32.52296634167187
46,0.5935000032187,0.3659058213234,28.27762171572,0.06412789970636,35.43844523739062
47,0.5955000072718,0.3774719834328,28.26605555361,0.07255838066339,40.097308837923315
48,0.5975000113249,0.3887787461281,28.25474879091,0.08298013359308,45.85659180473792
49,0.5995000004768,0.3998566269875,28.24367091006,0.09424111992121,52.079653048530076
50,0.60150000453,0.4107056260109,28.23282191103,0.1057462468743,58.43763160923865
51,0.6035000085831,0.4214020371437,28.2221254999,0.1167936101556,64.54264020073447
52,0.6055000126362,0.4319916367531,28.21153590029,0.1270780414343,70.22603629411644
53,0.6075000017881,0.442474424839,28.2010531122,0.1365995258093,75.48781165471885
54,0.6095000058413,0.4528809189796,28.19064661806,0.1451444476843,80.20991774756718
55,0.6115000098944,0.4632416367531,28.18028590029,0.1526059955359,84.33332824652153
56,0.6135000139475,0.4735565781593,28.16997095888,0.1591443866491,87.94658264073645
57,0.6155000030994,0.4838257431984,28.15970179384,0.1654233783484,91.41648738579401
58,0.6175000071526,0.4940796494484,28.14944788759,0.1714734882116,94.7599071461319
59,0.6195000112057,0.5043030381203,28.13922449892,0.177424415946,98.04851674652222
60,0.6215000003576,0.5145111680031,28.12901636904,0.1830472797155,101.15583120224532
61,0.6235000044107,0.5246887803078,28.11883875673,0.1876935809851,103.72347639026958
62,0.6255000084639,0.5348358750343,28.10869166201,0.1920957416296,106.15620426130006
63,0.627500012517,0.5449677109718,28.09855982607,0.1963910907507,108.52990580619067
64,0.6295000016689,0.5550842881203,28.08844324892,0.2009610980749,111.05538933262329
65,0.631500005722,0.5651703476906,28.07835718935,0.2060041278601,113.84227516065884
66,0.6335000097752,0.5752411484718,28.06828638857,0.2118177264929,117.05499377025053
67,0.6355000138283,0.585296690464,28.05823084658,0.2180509418249,120.49960151831995
68,0.6375000029802,0.5953217148781,28.04820582216,0.2236051410437,123.56897047869897
69,0.6395000070333,0.6053467392921,28.03818079775,0.2283506244421,126.19142582667081
70,0.6415000110865,0.6153717637062,28.02815577334,0.232844337821,128.67474769156706
71,0.6435000002384,0.6253815293312,28.01814600771,0.2372922748327,131.1327725595304
72,0.6460000127554,0.6378632187843,28.00566431826,0.2434339374304,134.52678631378933
73,0.6485000103712,0.6503449082375,27.99318262881,0.2501706779003,138.24965279334418
74,0.651000007987,0.6628265976906,27.98070093935,0.2568692862988,141.95144667687947
75,0.6535000056028,0.6752930283546,27.96823450869,0.2628202140331,145.24005627721453
76,0.6560000032187,0.6877442002296,27.95578333681,0.2689542472363,148.6298538653364
77,0.6585000008345,0.7002106308937,27.94331690615,0.2754392325878,152.21359509648138
78,0.6610000133514,0.7126465439796,27.93088099306,0.2823972404003,156.05873862922928
79,0.6635000109673,0.7250977158546,27.91842982119,0.2894773185253,159.97134082044647
80,0.6660000085831,0.7375641465187,27.90596339052,0.2965726554394,163.89237534399302
81,0.6685000061989,0.7500458359718,27.89348170107,0.3040418326855,168.02000200908444
82,0.670500010252,0.7600556015968,27.88347193545,0.3096570670605,171.1231002986705
83,0.6725000143051,0.7700653672218,27.87346216982,0.3152646720409,174.22198242206417
84,0.6745000034571,0.780105650425,27.86342188662,0.3205442130566,177.13956940090122
85,0.6765000075102,0.7901611924171,27.85336634463,0.3255719840527,179.91802289660737
86,0.6785000115633,0.8002319931984,27.84329554384,0.3299741446972,182.35075076763786
87,0.6805000007153,0.8103027939796,27.83322474306,0.3340863883495,184.62326432479693
88,0.6825000047684,0.82038885355,27.82313868349,0.3389539420605,187.3131783312933
89,0.6845000088215,0.8304749131203,27.81305262392,0.34408852458,190.15065815313935
90,0.6865000128746,0.8405609726906,27.80296656435,0.349215477705,192.98392180884835
91,0.6885000020266,0.8506470322609,27.79288050478,0.3545942008495,195.95631894763292
92,0.6905000060797,0.8607483506203,27.78277918642,0.360316246748,199.1184435634141
93,0.6925000101328,0.8708649277687,27.77266260927,0.3658322989941,202.16673169299733
94,0.6945000141859,0.8809815049171,27.76254603213,0.370814293623,204.9198881917706
95,0.6965000033379,0.8910980820656,27.75242945498,0.3754377067089,207.47488488127317
96,0.698500007391,0.9012299180031,27.74229761904,0.38022133708,210.11842106004082
97,0.7005000114441,0.9113770127296,27.73215052431,0.3851880729198,212.86314522648473
98,0.702500000596,0.9215241074562,27.72200342959,0.3903150260448,215.69640888219374
99,0.7045000046492,0.9316712021828,27.71185633486,0.3956098258495,218.62242819330487
100,0.7065000087023,0.9418182969093,27.70170924013,0.4009885489941,221.59482533214472
101,0.7085000127554,0.951980650425,27.69154688662,0.4065198600292,224.65154579400203
102,0.7105000019073,0.9621587991714,27.68136873787,0.411971449852,227.66421061347458
103,0.7125000059605,0.9723211526871,27.67120638436,0.4174646139145,230.69985024459137
104,0.7145000100136,0.9825140237808,27.66101351326,0.4228967428207,233.70176054644588
105,0.7165000140667,0.9927221536636,27.65080538338,0.4276269674301,236.31578356214357
106,0.7185000032187,1.002915024757,27.64061251229,0.431632399559,238.52927079316277
107,0.7205000072718,1.01312315464,27.6304043824,0.4360650777817,240.97886332885201
108,0.7225000113249,1.023331284523,27.62019625252,0.4413064718246,243.87536947683793
109,0.7245000004768,1.033524155617,27.61000338143,0.4469903707504,247.01641326182332
110,0.72650000453,1.0437322855,27.59979525154,0.4527276754379,250.1869702098786
111,0.7285000085831,1.053940415382,27.58958712166,0.4583276510239,253.28163616719053
112,0.7305000126362,1.064148545265,27.57937899178,0.4632867574692,256.0221441674974
113,0.7325000017881,1.074356675148,27.56917086189,0.4672845602036,258.2314152323795
114,0.7345000058413,1.084564805031,27.55896273201,0.4710420370102,260.307877063364
115,0.7365000098944,1.094757676125,27.54876986092,0.4755662679672,262.8080635928638
116,0.7385000139475,1.104950547218,27.53857698982,0.4808229207993,265.71300207323435
117,0.7405000030994,1.115112900734,27.52841463631,0.4859727621078,268.55891422735453
118,0.7425000071526,1.125259995461,27.51826754158,0.4910310506821,271.3542323877195
119,0.7445000112057,1.135376572609,27.50815096443,0.4963258504868,274.2802516988306
120,0.7465000003576,1.145508408546,27.4980191285,0.5017427206039,277.2737296683557
121,0.7485000044107,1.155594468117,27.48793306893,0.5069230794907,280.13650648718993
122,0.7505000084639,1.165665268898,27.47786226814,0.5124925374985,283.21430777984307
123,0.752500012517,1.17572081089,27.46780672615,0.5186342000961,286.6083215340467
124,0.7545000016689,1.185776352882,27.45775118416,0.5244172811508,289.80417547903494
125,0.756500005722,1.195831894875,27.44769564217,0.5297120809555,292.7301947901461
126,0.7585000097752,1.205856919289,27.43767061775,0.5346788167953,295.47491895659
127,0.7605000138283,1.215881943703,27.42764559334,0.5397981405258,298.3039664461619
128,0.7630000114441,1.228378891945,27.4151486451,0.5460847616196,301.77808735735647
129,0.7655000090599,1.240845322609,27.40268221443,0.5526002645493,305.37869325316024
130,0.7680000066757,1.253281235695,27.39024630135,0.5597108602524,309.3081601089809
131,0.7705000042915,1.265686631203,27.37784090584,0.5673402547836,313.52432626328215
132,0.7730000019073,1.278076767921,27.36545076912,0.5745652914047,317.51703561143506
133,0.7755000144243,1.290436387062,27.35309114998,0.5813554525375,321.26942348878083
134,0.7780000120401,1.302796006203,27.34073153084,0.587809920311,324.8363000553776
135,0.780500009656,1.315140366554,27.32838717049,0.5948289632797,328.7151729173325
136,0.7830000072718,1.327484726906,27.31604281014,0.6019548177719,332.6530721054825
137,0.7855000048876,1.339829087257,27.30369844979,0.6089586019516,336.52351263516334
138,0.7880000025034,1.352173447609,27.29135408943,0.6155503988266,340.1662801925035
139,0.7905000001192,1.364517807961,27.27900972908,0.6222261190414,343.85542557751705
140,0.7930000126362,1.37689268589,27.26663485115,0.6291383504868,347.6752721133874
141,0.795500010252,1.389282822609,27.25424471443,0.635417342186,351.1451768583897
142,0.7980000078678,1.401688218117,27.24183931893,0.6419252157211,354.74156658800104
143,0.8005000054836,1.414124131203,27.22940340584,0.6489061117172,358.5993586192155
144,0.8030000030994,1.426560044289,27.21696749275,0.6547273397446,361.81629339499943
145,0.8055000007153,1.439011216164,27.20451632088,0.6605333089828,365.02479583839886
146,0.8080000132322,1.451462388039,27.192065149,0.6665986776352,368.37664793112134
147,0.810500010848,1.463913559914,27.17961397713,0.6722596883774,371.50504321764026
148,0.8130000084639,1.476349473,27.16717806404,0.6782487630844,374.81473364877115
149,0.8155000060797,1.488785386086,27.15474215096,0.6843904256821,378.20874740303003
150,0.8180000036955,1.501190781593,27.14233675545,0.6902498006821,381.4467630095546
151,0.8205000013113,1.513580918312,27.12994661873,0.6964982748032,384.8998030899534
152,0.8230000138283,1.525940537453,27.11758699959,0.7030290365219,388.5088413180313
153,0.8255000114441,1.538300156593,27.10522738045,0.7095979452133,392.13896037690495
154,0.8280000090599,1.550644516945,27.0928830201,0.7164186239243,395.9082129189095
155,0.8305000066757,1.56292784214,27.0805996949,0.7233766317368,399.75335645165745
156,0.8330000042915,1.575226426125,27.06830111092,0.7306932210922,403.79665979362085
157,0.8355000019073,1.587479233742,27.0560483033,0.7383531332016,408.0296906125808
158,0.8380000144243,1.599747300148,27.04378023689,0.7462190389633,412.3765579176835
159,0.8405000120401,1.612030625343,27.0314969117,0.7531388998032,416.2006206196909
160,0.843000009656,1.62429869175,27.01922884529,0.7597383260727,419.84760434316803
161,0.8455000072718,1.636582016945,27.0069455201,0.7670778036118,423.9035561836531
162,0.8480000048876,1.648880600929,26.99464693611,0.7739900350571,427.72340271946814
163,0.8505000025034,1.661179184914,26.98234835213,0.7800554037094,431.0752548121354
164,0.8530000001192,1.673523545265,26.97000399178,0.7863496541977,434.5535918894671
165,0.8555000126362,1.685837388039,26.957690149,0.7927888631821,438.11203612373447
166,0.858000010252,1.698197007179,26.94533052986,0.7994111776352,441.7716683456781
167,0.8605000078678,1.71055662632,26.93297091072,0.8065522909164,445.71799986610233
168,0.8630000054836,1.722946763039,26.920580774,0.8136857748032,449.6601152204447
169,0.8655000030994,1.735352158546,26.9081753785,0.8203157186508,453.3239636085254
170,0.8680000007153,1.747757554054,26.89576998299,0.8268693685532,456.945650335125
171,0.8705000132322,1.760178208351,26.88334932869,0.8335527181625,460.63901188627557
172,0.873000010848,1.772614121437,26.87091341561,0.8399537801743,464.1763752898024
173,0.8755000084639,1.785050034523,26.85847750252,0.8468888998032,468.0088703240839
174,0.8780000060797,1.797501206398,26.84602633064,0.854167342186,472.0310928353067
175,0.8805000036955,1.809952378273,26.83357515877,0.8608506917953,475.72445438645735
176,0.8830000013113,1.822403550148,26.82112398689,0.8673356771469,479.3081956176576
177,0.8855000138283,1.834839463234,26.80868807381,0.8738740682602,482.9214500119278
178,0.8880000114441,1.84727537632,26.79625216072,0.8799699544907,486.2901667692538
179,0.8905000090599,1.859696030617,26.78383150643,0.8869661092758,490.15639113274227
180,0.8930000066757,1.872086167336,26.77144136971,0.8946412801743,494.39785428403167
181,0.8955000042915,1.884476304054,26.75905123299,0.9021180868149,498.52969711526015
182,0.8980000019073,1.896866440773,26.74666109627,0.9095491170883,502.6362429495557
183,0.9005000144243,1.909241318703,26.73428621834,0.916911482811,506.7048432885072
184,0.9030000120401,1.921616196632,26.72191134041,0.9241899251938,510.7270657997301
185,0.905500009656,1.934006333351,26.70952120369,0.931933760643,515.0064744463635
186,0.9080000072718,1.94639647007,26.69713106697,0.9399751424789,519.4503135730054
187,0.9105000048876,1.958801865578,26.68472567146,0.9481233358383,523.9531790258424
188,0.9130000025034,1.971237778664,26.67228975838,0.9549058675766,527.7013507370511
189,0.9155000001192,1.98367369175,26.65985384529,0.9617875814438,531.5043326082626
190,0.9180000126362,1.996155381203,26.64737215584,0.9692338705063,535.6193107748877
191,0.920500010252,2.008652448654,26.63487508839,0.9758409261703,539.2705106645019
192,0.9225000143051,2.018662214279,26.62486532276,0.981006026268,542.1248551510067
193,0.9245000034571,2.028671979904,26.61485555714,0.9860872030258,544.9328218097828
194,0.9265000075102,2.038697004318,26.60483053272,0.9911454916,547.7281399700925
195,0.9285000115633,2.048722028732,26.59480550831,0.9963334798813,550.5951329550637
196,0.9305000007153,2.058747053146,26.5847804839,1.001826643944,553.6307725862911
197,0.9325000047684,2.068787336349,26.57474020069,1.007846236229,556.9573276819701
198,0.9345000088215,2.078827619553,26.56469991749,1.013667464256,560.1742624575331
199,0.9365000128746,2.088883161545,26.5546443755,1.019122481346,563.1888212579646
200,0.9385000020266,2.098938703537,26.54458883351,1.024295210838,566.0473819104959
201,0.9405000060797,2.10897898674,26.5345485503,1.029223799706,568.7710252466414
202,0.9425000101328,2.119019269943,26.5245082671,1.034335494041,571.5958565695236
203,0.9445000141859,2.129059553146,26.5144679839,1.039462447166,574.4291202252326
204,0.9465000033379,2.13908457756,26.50444295948,1.044391036034,577.1527635613782
205,0.9490000009537,2.151581525803,26.49194601124,1.05112016201,580.8714221091852
206,0.9515000134706,2.164047956467,26.47947958058,1.058627486229,585.020129605183
207,0.9540000110865,2.176483869553,26.46704366749,1.066417098045,589.3248352485283
208,0.9565000087023,2.188904523849,26.45462301319,1.074221968651,593.6379732247003
209,0.9590000063181,2.201309919357,26.44221761769,1.081752181053,597.7993292188329
210,0.9615000039339,2.213689088821,26.42983844822,1.089240908623,601.9377598099234
211,0.9640000015497,2.226063966751,26.41746357029,1.09775531292,606.6430012382235
212,0.9665000140667,2.238438844681,26.40508869236,1.10539996624,610.8675997246884
213,0.9690000116825,2.2508289814,26.39269855564,1.113067507744,615.1048467098407
214,0.9715000092983,2.263219118118,26.38030841892,1.121551394463,619.7932234735924
215,0.9740000069141,2.275624513626,26.36790302342,1.129714846611,624.3045212584826
216,0.97650000453,2.288045167923,26.35548236912,1.136916995049,628.2845821084453
217,0.9790000021458,2.300481081009,26.34304645603,1.144393801689,632.4164249393423
218,0.9815000146627,2.312932252884,26.33059528416,1.151489138603,636.3374594628335
219,0.9840000122786,2.325398683548,26.31812885349,1.157012820244,639.3899637587748
220,0.9865000098944,2.337865114212,26.30566242283,1.163146853447,642.7797613467861
221,0.9890000075102,2.350331544876,26.29319599217,1.170387148857,646.7809030271578
222,0.991500005126,2.362782716751,26.28074482029,1.177360415459,650.6344788924563
223,0.9940000027418,2.375249147415,26.26827838963,1.184257388115,654.4458930958314
224,0.9965000003576,2.387715578079,26.25581195896,1.191787600517,658.6072490899641
225,0.9990000128746,2.400182008743,26.2433455283,1.199378848076,662.8023344137457
226,1.00150001049,2.412663698196,26.23086383885,1.206680178642,666.837205423214
227,1.003500014544,2.422673463821,26.22085407322,1.212303042412,669.9445198792134
228,1.006000012159,2.435170412064,26.20835712498,1.219177126884,673.743285583901
229,1.008000001311,2.445180177689,26.19834735935,1.224563479424,676.7198988893753
230,1.010000005364,2.455189943314,26.18833759373,1.23023211956,679.8525103416443
231,1.012000009418,2.465214967728,26.17831256932,1.236030459404,683.0567966190724
232,1.014000013471,2.475224733353,26.16830280369,1.241783022881,686.2357858996783
233,1.016000002623,2.485234498978,26.15829303807,1.248039126396,689.6930421458825
234,1.018500000238,2.49773144722,26.14579608982,1.255905032158,694.0399094511511
235,1.021000012755,2.510228395462,26.13329914158,1.262847781181,697.8766206513484
236,1.023000001907,2.520238161087,26.12328937596,1.268714785576,701.1188524242864
237,1.025500014424,2.532735109329,26.11079242771,1.277114748955,705.7608513602544
238,1.027500003576,2.542744874954,26.10078266209,1.283866763115,709.492158406749
