,time,travel,position,force,stress
0,0.0,0.0,20.83764850708,-0.01931543089449,-10.674119113916644
1,0.0,0.0,20.83764793339,-0.01934642530978,-10.69124728892236
2,0.0,0.0,20.83765659096,-0.01992431469262,-11.010601288364413
3,0.0,0.0,20.83766525599,-0.01967010088265,-10.870117314548615
4,0.0,0.0,20.83766658964,-0.01947602815926,-10.762868587997142
5,0.0,0.0,20.93729125838,-0.01438846345991,-7.951371816464554
6,0.0,0.0,20.93728645505,-0.01446846034378,-7.995579800839064
7,0.008000001311302,-5.010515451431e-07,20.9372869561,-0.01371648814529,-7.580023924250996
8,0.01100000739098,1.857522875071e-06,20.93728459753,-0.01388969924301,-7.675744071474994
9,0.01300001144409,4.234258085489e-06,20.93728222079,-0.01400354411453,-7.73865717580857
10,0.01399999856949,5.791429430246e-06,20.93728066362,-0.01401437725872,-7.744643802360882
11,0.1140000075102,5.249507739791e-05,20.93723395997,-0.01388069521636,-7.670768254290693
12,0.2145000100136,1.266331400984e-05,20.93727379174,-0.0162730384618,-8.992828160833344
13,0.3149999976158,1.052725292539e-05,20.9372759278,-0.01558305602521,-8.611529148924008
14,0.4150000065565,7.551816906926e-06,20.93727890324,-0.01460360735655,-8.070264922805901
15,0.4690000116825,0.01037557516247,20.92691087989,0.03424943983555,18.926970999848102
16,0.47650000453,0.02043683826923,20.91684961678,0.0729838758707,40.332446565372265
17,0.4814999997616,0.031060770154,20.9062256849,0.08257021009922,45.630059338288895
18,0.4855000078678,0.04173429310322,20.89555216195,0.1108752638102,61.27203577087245
19,0.4890000075102,0.05301053822041,20.88427591683,0.1403399854898,77.55486945884215
20,0.4919999986887,0.06427152454853,20.8730149305,0.1579028517008,87.26048394614172
21,0.4945000112057,0.07475431263447,20.86253214242,0.1692706495523,93.54257151605718
22,0.4970000088215,0.08615262806416,20.85113382699,0.1803180128336,99.647580107553
23,0.4995000064373,0.09842069447041,20.83886576058,0.1925097852945,106.38501362214978
24,0.5015000104904,0.1087661534548,20.8285203016,0.2037097364664,112.57434553671837
25,0.5034999996424,0.1195846349001,20.81770182015,0.2163287550211,119.5478843559852
26,0.5055000036955,0.1308456212282,20.80644083382,0.2304431349039,127.34779174148669
27,0.5075000077486,0.142503336072,20.79478311898,0.2452746778727,135.54401874552963
28,0.5095000118017,0.1545272618532,20.7827591932,0.2593432962894,143.31863736876392
29,0.5115000009537,0.1668868809938,20.77039957406,0.2728168070316,150.76438679731558
30,0.5135000050068,0.1794906407595,20.75779581429,0.2875110208988,158.88472281055988
31,0.5155000090599,0.192323282361,20.74496317269,0.3027087748051,167.2833257900106
32,0.5174999982119,0.2053237706423,20.73196268441,0.3166247904301,174.97361285550645
33,0.519500002265,0.218431070447,20.71885538461,0.3305102884769,182.64703525634351
34,0.5215000063181,0.2315688878298,20.70571756722,0.3450976908207,190.70834494344794
35,0.5235000103712,0.2446914464235,20.69259500863,0.3605395853519,199.2418652397819
36,0.5254999995232,0.2576919496059,20.67959450545,0.3794604837894,209.69795730251747
37,0.5275000035763,0.2705703675747,20.66671608748,0.4041492044926,223.3414709779671
38,0.5295000076294,0.2833572328091,20.65392922224,0.4325915873051,239.0593384013051
39,0.5315000116825,0.2960525453091,20.64123390974,0.4598743021488,254.13634856915746
40,0.5335000008345,0.3086715638638,20.62861489119,0.4812671244144,265.9584784658818
41,0.5355000048876,0.321183770895,20.61610268416,0.4976245462894,274.99793870076286
42,0.5375000089407,0.3334518373013,20.60383461775,0.5144091844559,284.2734877709273
43,0.5394999980927,0.3454605042934,20.59182595076,0.5352221727371,295.7751890399088
44,0.5415000021458,0.3571945130825,20.58009194197,0.5607653856277,309.890913324588
45,0.5435000061989,0.3686386048794,20.56864785017,0.5897570848465,325.9123447110653
46,0.545500010252,0.3798538148403,20.55743264021,0.6207629442215,343.04684396225775
47,0.547499999404,0.3908554017544,20.5464310533,0.6520739793777,360.3499898595957
48,0.5495000034571,0.4016586244106,20.53562783064,0.6832324266434,377.56881243391626
49,0.5515000075102,0.4123245179653,20.52496193709,0.7141772508621,394.6695823558465
50,0.5535000115633,0.4228683412075,20.51441811384,0.7447253465652,411.5511116377654
51,0.5555000007153,0.4333206117153,20.50396584334,0.7745105028152,428.0110243042653
52,0.5575000047684,0.4437118470669,20.49357460799,0.8035937547684,444.08304968460834
53,0.5595000088215,0.4540420472622,20.48324440779,0.832310795784,459.95269908948836
54,0.5614999979734,0.4643264710903,20.47295998396,0.860875248909,475.73802517129565
55,0.5635000020266,0.4745956361294,20.46269081892,0.8886767625809,491.10173463768376
56,0.5655000060797,0.4848495423794,20.45243691267,0.9156543016434,506.0100981593906
57,0.5675000101328,0.4950729310513,20.442213524,0.943150639534,521.2051609795781
58,0.5694999992847,0.5052962899208,20.43199016513,0.9710437059402,536.6194644397767
59,0.5715000033379,0.5155044198036,20.42178203525,0.9983569383621,551.7133392722878
60,0.573500007391,0.5256820321083,20.41160442294,1.024785161018,566.3181388306897
61,0.5755000114441,0.535859644413,20.40142681064,1.051091313362,580.8554797309536
62,0.577500000596,0.5460525155067,20.39123393955,1.07748901844,595.4434146248624
63,0.5795000046492,0.5562301278114,20.38105632724,1.104100346565,610.1494021711615
64,0.5815000087023,0.5663924813271,20.37089397372,1.131108403206,625.0746303576929
65,0.5834999978542,0.5765548348427,20.36073162021,1.158665776253,640.3034225071978
66,0.5855000019073,0.5867171883583,20.35056926669,1.186253666878,655.5490793212509
67,0.5875000059605,0.5968642830849,20.34042217197,1.213414311409,670.5586308305235
68,0.5895000100136,0.6070113778114,20.33027507724,1.240330815315,685.4332650228575
69,0.5914999991655,0.6171432137489,20.3201432413,1.267216801643,700.2910345506434
70,0.5935000032187,0.6272597908974,20.31002666415,1.294438481331,715.3343153895651
71,0.5955000072718,0.6373763680458,20.29991008701,1.321812748909,730.4619195512279
72,0.5975000113249,0.6474776864052,20.28980876865,1.349522709846,745.7750350234741
73,0.5995000004768,0.6575790047646,20.27970745029,1.377507328987,761.2399324777595
74,0.60150000453,0.6676803231239,20.26960613193,1.405247807503,776.5699126151064
75,0.6035000085831,0.6777663826942,20.25952007236,1.432744145393,791.7649754349624
76,0.605499997735,0.6878371834755,20.24944927158,1.460332036018,807.0106322490155
77,0.6075000017881,0.6979079842567,20.2393784708,1.488011479378,822.306883057266
78,0.6095000058413,0.7079635262489,20.2293229288,1.515355229378,837.4176225543805
79,0.6115000098944,0.7180203795433,20.21926607551,1.542312502861,852.3147868845873
80,0.6134999990463,0.7280606627464,20.20922579231,1.569686770439,867.4423910462501
81,0.6155000030994,0.7380856871605,20.19920076789,1.597610354424,882.8735591714391
82,0.6175000071526,0.7480954527855,20.18919100227,1.625625491142,898.3553212897202
83,0.6200000047684,0.7605924010277,20.17669405402,1.661117434502,917.9689262400034
84,0.6225000023842,0.7730588316917,20.16422762336,1.697097659111,937.8523658236112
85,0.625,0.7854947447777,20.15179171027,1.733016848564,957.7020760781223
86,0.6274999976158,0.7979306578636,20.13935579719,1.768539309502,977.3325456929538
87,0.6300000101328,0.8103513121605,20.12693514289,1.804550051689,997.2328499411097
88,0.6325000077486,0.8227719664574,20.11451448859,1.840896487236,1017.3186655004015
89,0.6350000053644,0.8351926207542,20.1020938343,1.877273440361,1037.4213457242415
90,0.6375000029802,0.8476285338402,20.08965792121,1.913986086845,1057.7095372586648
91,0.640000000596,0.8600797057152,20.07720674934,1.950668215752,1077.9808641290922
92,0.6424999982119,0.8725613951683,20.06472505988,1.98698413372,1098.0498150232834
93,0.644500002265,0.8825711607933,20.05471529426,2.015609502792,1113.8688045567508
94,0.6465000063181,0.8925809264183,20.04470552863,2.044082403183,1129.6035366449132
95,0.6485000103712,0.9026059508324,20.03468050422,2.072860479355,1145.506915379111
96,0.6504999995232,0.9126309752464,20.02465547981,2.10206580162,1161.6463994175363
97,0.6525000035763,0.9226865172386,20.01459993781,2.131576299667,1177.9545301025494
98,0.6545000076294,0.9327420592308,20.00454439582,2.161514043808,1194.498766092343
99,0.6565000116825,0.942797601223,19.99448885383,2.191573858261,1211.1104607403297
100,0.6585000008345,0.9528684020042,19.98441805305,2.22154211998,1227.6715613946717
101,0.6605000048876,0.9629544615746,19.97433199348,2.251418828964,1244.1820680548162
102,0.6625000089407,0.9730557799339,19.96423067512,2.281509160995,1260.810627367351
103,0.6644999980927,0.9831570982933,19.95412935676,2.311477422714,1277.371728021693
104,0.6665000021458,0.9932736754417,19.94401277961,2.342056035995,1294.2701219681048
105,0.6685000061989,1.003405570984,19.93388088407,2.372878789902,1311.3034332320078
106,0.670500010252,1.013537406921,19.92374904813,2.403793096542,1328.3873384890032
107,0.672499999404,1.023684501648,19.9136019534,2.434859991074,1345.5555670698448
108,0.6745000034571,1.033862113953,19.9034243411,2.46568274498,1362.5888783331952
109,0.6765000075102,1.044039726257,19.89324672879,2.496383428574,1379.5547309383526
110,0.6785000115633,1.054232597351,19.8830538577,2.526931524277,1396.4362602202161
111,0.6805000007153,1.064425468445,19.87286098661,2.557082891464,1413.0985488618476
112,0.6825000047684,1.074618339539,19.86266811551,2.586959600449,1429.6090555225448
113,0.6845000088215,1.084811210632,19.85247524442,2.616866827011,1446.1364268472378
114,0.6864999979734,1.094988822937,19.84229763211,2.647201299667,1462.899903476711
115,0.6885000020266,1.105151176453,19.8321352786,2.678207159042,1480.0344027279036
116,0.6905000060797,1.115313529968,19.82197292508,2.70933508873,1497.2363606378417
117,0.6925000101328,1.125460624695,19.81182583036,2.740401983261,1514.4045892181305
118,0.6944999992847,1.135607719421,19.80167873563,2.771316289902,1531.4884944756782
119,0.6965000033379,1.145739555359,19.79154689969,2.802474737167,1548.707317049612
120,0.698500007391,1.155871391296,19.78141506376,2.833450078964,1565.8249516362562
121,0.7005000114441,1.165987968445,19.77129848661,2.863937139511,1582.6727515890234
122,0.702500000596,1.176104545593,19.76118190946,2.894576787949,1599.6048748650844
123,0.7045000046492,1.186190605164,19.75109584989,2.925277471542,1616.5707274696892
124,0.7065000087023,1.196276664734,19.74100979032,2.95591711998,1633.5028507457503
125,0.7084999978542,1.206332206726,19.73095424833,2.987075567245,1650.7216733196838
126,0.7105000019073,1.216387748718,19.72089870633,3.018752813339,1668.2271951925954
127,0.7125000059605,1.226428031921,19.71085842313,3.050002813339,1685.4966117607264
128,0.7145000100136,1.236468315125,19.70081813993,3.081619024277,1702.9684043045415
129,0.7164999991655,1.24647808075,19.6908083743,3.112746953964,1720.170362213927
130,0.7185000032187,1.256503105164,19.68078334989,3.143447637558,1737.1362148190844
131,0.7205000072718,1.266512870789,19.67077358426,3.17417883873,1754.1189320887904
132,0.7225000113249,1.276522636414,19.66076381864,3.205245733261,1771.2871606690792
133,0.7250000089407,1.289019584656,19.6482668704,3.244552373886,1793.0088486961815
134,0.7275000065565,1.301516532898,19.63576992215,3.284408330917,1815.0341006862573
135,0.7300000041723,1.313982963562,19.62330349149,3.324325323105,1837.0930820059823
136,0.7325000017881,1.326464653015,19.61082180204,3.364303350449,1859.1857926548037
137,0.734999999404,1.338946342468,19.59834011258,3.404220342636,1881.244773973976
138,0.7375000119209,1.351428031921,19.58585842313,3.444259405136,1903.3712139518937
139,0.7395000010729,1.361437797546,19.57584865751,3.476058721542,1920.9441944829982
140,0.7419999986887,1.373934745789,19.56335170926,3.515914678574,1942.9694464736267
141,0.7440000027418,1.383944511414,19.55334194364,3.547836065292,1960.6098856629242
142,0.7460000067949,1.393954277039,19.54333217801,3.579757452011,1978.2503248527744
143,0.748000010848,1.403964042664,19.53332241239,3.611800909042,1995.9582227008173
144,0.75,1.413973808289,19.52331264676,3.644271612167,2013.9022258536409
145,0.7524999976158,1.426470756531,19.51081569852,3.685165166855,2036.50087644112
146,0.7545000016689,1.436480522156,19.5008059329,3.717696905136,2054.47860892304
147,0.756500005722,1.446490287781,19.49079616727,3.750106573105,2072.388882746767
148,0.7585000097752,1.456500053406,19.48078640165,3.782333135605,2090.1979685826523
149,0.7604999989271,1.466509819031,19.47077663602,3.814376592636,2107.9058664306954
150,0.7630000114441,1.479006767273,19.45827968778,3.854903936386,2130.3021410424903
151,0.7655000090599,1.491488456726,19.44579799833,3.895553350449,2152.765874313031
152,0.7680000066757,1.503939628601,19.43334682645,3.93638586998,2175.3307955708606
153,0.7705000042915,1.516390800476,19.42089565458,3.977523565292,2198.0643634747257
154,0.7730000019073,1.528796195984,19.40849025907,4.018783569336,2220.865521792761
155,0.7754999995232,1.541201591492,19.39608486356,4.060531616211,2243.936382989248
156,0.7780000120401,1.553576469421,19.38370998563,4.102645874023,2267.209620160867
157,0.780500009656,1.56596660614,19.37131984891,4.144882202148,2290.550315991232
158,0.7830000072718,1.578326225281,19.35896022977,4.187606811523,2314.1608464554733
159,0.7855000048876,1.590716362,19.34657009305,4.230392456055,2337.805106249364
160,0.7880000025034,1.603137016296,19.33414943876,4.272811889648,2361.246990067018
161,0.7905000001192,1.615588188171,19.32169826688,4.315048217773,2384.5876858973825
162,0.792999997735,1.628039360046,19.30924709501,4.357345581055,2407.9621110573967
163,0.795500010252,1.6405210495,19.29676540555,4.399642944336,2431.3365362168574
164,0.7980000078678,1.653002738953,19.2842837161,4.442428588867,2454.9807960101957
165,0.8005000054836,1.665499687195,19.27178676786,4.485153198242,2478.591326474437
166,0.8025000095367,1.67550945282,19.26177700223,4.519271850586,2497.4460215167337
167,0.8044999986887,1.685519218445,19.25176723661,4.553573608398,2516.40190454632
168,0.8065000027418,1.695544242859,19.24174221219,4.588241577148,2535.5601635515904
169,0.8085000067949,1.705554008484,19.23173244657,4.622848510742,2554.6846932277645
170,0.810500010848,1.715563774109,19.22172268094,4.657638549805,2573.9104108917804
171,0.8125,1.725573539734,19.21171291532,4.692672729492,2593.271045872182
172,0.8145000040531,1.735583305359,19.20170314969,4.727767944336,2612.665410182233
173,0.8165000081062,1.745593070984,19.19169338407,4.763046264648,2632.1609624795733
174,0.8185000121593,1.755618095398,19.18166835965,4.79850769043,2651.7577027653083
175,0.8205000013113,1.765627861023,19.17165859403,4.833847045898,2671.286984391745
176,0.8225000053644,1.775652885437,19.16163356961,4.868515014648,2690.4452433970155
177,0.8245000094175,1.785662651062,19.15162380399,4.902938842773,2709.468585085347
178,0.8270000070333,1.798159599304,19.13912685575,4.946090698242,2733.3152208543697
179,0.8295000046492,1.810626029968,19.12666042508,4.990097045898,2757.6340672324
180,0.832000002265,1.823092460632,19.11419399442,5.034652709961,2782.256477573957
181,0.8344999998808,1.835528373718,19.10175808133,5.078414916992,2806.4404066350494
182,0.8370000123978,1.847933769226,19.08935268583,5.12223815918,2830.6580650257906
183,0.8395000100136,1.860293388367,19.07699306669,5.166305541992,2855.0106407329176
184,0.8420000076294,1.872622489929,19.06466396512,5.210800170898,2879.5993217448254
185,0.8445000052452,1.884921073914,19.05236538114,5.25553894043,2904.3229200742244
186,0.847000002861,1.897204399109,19.04008205594,5.301132202148,2929.518729012079
187,0.8495000004768,1.909472465515,19.02781398954,5.346481323242,2954.579620633548
188,0.8519999980927,1.92175579071,19.01553066434,5.391464233398,2979.4381362793324
189,0.8545000106096,1.934039115906,19.00324733915,5.43620300293,3004.161734608732
190,0.8570000082254,1.946322441101,18.99096401395,5.481307983398,3029.0877089127093
191,0.8595000058413,1.958636283875,18.97865017118,5.526657104492,3054.1486005341785
192,0.8620000034571,1.97096145153,18.96632500352,5.572093963623,3079.2579780663614
193,0.8645000010729,1.98333632946,18.95395012559,5.617259979248,3104.217681699988
194,0.8669999986887,1.995726466179,18.94155998887,5.662181854248,3129.0424680166766
195,0.8695000112057,2.008147239685,18.92913921537,5.706981658936,3153.799795675172
196,0.8720000088215,2.020583152771,18.91670330228,5.752208709717,3178.7932286378955
197,0.8745000064373,2.033064842224,18.90422161283,5.797985076904,3204.0902255635924
198,0.8770000040531,2.045546531677,18.89173992337,5.843334197998,3229.151117185061
199,0.8790000081062,2.055556297302,18.88173015775,5.879161834717,3248.950233445928
200,0.881500005722,2.068037986755,18.8692484683,5.923656463623,3273.5389144578353
201,0.8835000097752,2.07804775238,18.85923870267,5.960033416748,3293.641594681675
202,0.886000007391,2.090514183044,18.84677227201,6.005992889404,3319.0397795952144
203,0.8885000050068,2.102995872498,18.83429058255,6.051952362061,3344.437964509306
204,0.8910000026226,2.115477561951,18.8218088931,6.097728729248,3369.7349614350023
205,0.8935000002384,2.127928733826,18.80935772123,6.143749237061,3395.1668756781905
206,0.8959999978542,2.140379905701,18.79690654935,6.189403533936,3420.3964139456943
207,0.8985000103712,2.152800559998,18.78448589505,6.234508514404,3445.3223882496723
208,0.901000007987,2.165175437927,18.77211101712,6.280529022217,3470.7543024928605
209,0.9035000056028,2.177550315857,18.7597361392,6.327220916748,3496.5572393572147
210,0.9060000032187,2.189909934998,18.74737652005,6.374340057373,3522.5962815263497
211,0.9085000008345,2.202254295349,18.7350321597,6.421276092529,3548.5341357076427
212,0.9109999984503,2.214583396912,18.72270305814,6.467906951904,3574.303343242901
213,0.9135000109673,2.226912498474,18.71037395658,6.514659881592,3600.1400094369046
214,0.9160000085831,2.239256858826,18.69802959623,6.561473846436,3626.010404960004
215,0.9185000061989,2.251616477966,18.68566997709,6.608226776123,3651.847071153455
216,0.9210000038147,2.263960838318,18.67332561673,6.655467987061,3677.9535719813357
217,0.9235000014305,2.276335716248,18.6609507388,6.702831268311,3704.1275314674094
218,0.9259999990463,2.288725852966,18.64856060209,6.750133514404,3730.267761623834
219,0.9285000115633,2.301131248474,18.63615520658,6.797313690186,3756.340533122618
220,0.9310000091791,2.313551902771,18.62373455228,6.844554901123,3782.4470339499458
221,0.9335000067949,2.325987815857,18.6112986392,6.892162322998,3808.755910752958
222,0.9360000044107,2.338438987732,18.59884746732,6.939891815186,3835.1322462147155
223,0.9385000020266,2.350905418396,18.58638103666,6.987621307373,3861.5085816759206
224,0.9409999996424,2.36337184906,18.57391460599,7.035717010498,3888.0872931128097
225,0.9435000121593,2.375853538513,18.56143291654,7.084239959717,3914.9021098544795
226,0.9460000097752,2.388335227966,18.54895122709,7.132946014404,3941.8181145834387
227,0.9479999989271,2.398344993591,18.53894146146,7.172008514404,3963.4048852936025
228,0.9500000029802,2.408354759216,18.52893169584,7.211009979248,3984.9579266746696
229,0.9520000070333,2.41837978363,18.51890667142,7.249950408936,4006.4772387266403
230,0.9540000110865,2.428404808044,18.50888164701,7.288890838623,4027.9965507780585
231,0.9560000002384,2.438429832458,18.49885662259,7.327404022217,4049.279757525249
232,0.9580000042915,2.448439598083,18.48884685697,7.366222381592,4070.7316109184744
233,0.9600000083447,2.458449363708,18.47883709134,7.405223846436,4092.2846522995414
234,0.9620000123978,2.468459129333,18.46882732572,7.444042205811,4113.7365056927665
235,0.9645000100136,2.480956077576,18.45633037748,7.492931365967,4140.753698409568
236,0.9670000076294,2.493437767029,18.44384868802,7.542675018311,4168.24310173593
237,0.9695000052452,2.505919456482,18.43136699857,7.592174530029,4195.597587744802
238,0.972000002861,2.518385887146,18.41890056791,7.641674041748,4222.952073754225
239,0.9745000004768,2.53085231781,18.40643413724,7.691600799561,4250.542665068429
