,time,travel,position,force,stress
0,0.0,0.0,22.17888148408,-0.009635890834033,-6.337188666653877
1,0.0,0.0,22.17888060864,-0.009621913544834,-6.327996291996663
2,0.0,0.0,22.1788919745,-0.009568695910275,-6.2929969134854105
3,0.0,0.0,22.17888880428,-0.009299147874117,-6.11572458970335
4,0.0,0.0,22.17888873722,-0.009336341172457,-6.140185322268237
5,0.0,0.0,22.13762499304,-0.01080867089331,-7.10848512778421
6,0.0,0.0,22.13761760949,-0.01110359467566,-7.302446193058428
7,0.008000001311302,6.789807230234e-06,22.13761081968,-0.01089330948889,-7.1641489743251725
8,0.01099999248981,5.262438207865e-06,22.13761234705,-0.01062699593604,-6.9890038571828486
9,0.01299999654293,6.367918103933e-06,22.13761124157,-0.01042028702796,-6.853058631967723
10,0.01399999856949,7.24708661437e-06,22.1376103624,-0.01036223210394,-6.8148779372214126
11,0.1145000010729,2.597523234726e-05,22.13759163426,-0.008868203498423,-5.832307533549008
12,0.2150000035763,2.101576501445e-05,22.13759659373,-0.008276314474642,-5.443042806703625
13,0.3154999911785,-4.718483523902e-06,22.13762232797,-0.009310279041529,-6.1230451695215455
14,0.39849999547,0.009995769709349,22.12762183978,0.03469981253147,22.820854085725397
15,0.4064999967813,0.0206712000072,22.11694640948,0.07106150686741,46.734669758293265
16,0.411499992013,0.03139049932361,22.10622711017,0.07356394827366,48.3804380211136
17,0.4155000001192,0.04209453985095,22.09552306964,0.07656611502171,50.354858177883344
18,0.4189999997616,0.05292065069079,22.0846969588,0.08709086477757,57.276618295446724
19,0.4219999909401,0.0633500367403,22.07426757275,0.1034177690744,68.0142526930864
20,0.4249999970198,0.07496197521687,22.06265563427,0.1212400346994,79.73533397951415
21,0.4274999946356,0.08564312756062,22.05197448193,0.1366514116526,89.87085803717653
22,0.4299999922514,0.09725506603718,22.04036254345,0.1502622514963,98.82223175931277
23,0.4325000047684,0.1098283082247,22.02778930127,0.1603940874338,105.48558618926829
24,0.4344999939203,0.1205704957247,22.01704711377,0.1663068681955,109.37421546878572
25,0.4364999979734,0.1318467408419,22.00577086865,0.170522108674,112.14643182611762
26,0.4385000020266,0.1436570435762,21.99396056592,0.1723150163889,113.32556457543139
27,0.4404999911785,0.1559251099825,21.98169249951,0.1718580573797,113.02503860392495
28,0.4424999952316,0.1685593873262,21.96905822217,0.1713669151068,112.702031494448
29,0.4444999992847,0.1814683228731,21.95614928662,0.1708767265081,112.37965158316538
30,0.4465000033379,0.1945908814669,21.94302672802,0.1697494834661,111.63830322696602
31,0.4484999924898,0.2078202515841,21.92979735791,0.169990286231,111.7966707903711
32,0.4504999965429,0.2210801392794,21.91653747021,0.1728703826666,113.69080956849956
33,0.452500000596,0.2343247681856,21.90329284131,0.176208242774,115.88600351660682
34,0.4545000046492,0.2474778443575,21.89013976513,0.1813733428717,119.28290935178612
35,0.4564999938011,0.2604935765266,21.87712403296,0.1911694854498,125.72548999037123
36,0.4584999978542,0.2733719944954,21.864245615,0.2060010284185,135.4796774992491
37,0.4605000019073,0.2861588597298,21.85145874976,0.2230298370123,146.6789298243277
38,0.4624999910593,0.2988389134407,21.83877869605,0.2401196807623,157.91832283871048
39,0.4644999951124,0.3114731907845,21.82614441871,0.2569958865643,169.0172136404643
40,0.4664999991655,0.324046432972,21.81357117652,0.272803992033,179.41365217873548
41,0.4685000032187,0.3365586400032,21.80105896949,0.2856824100018,187.88333762889255
42,0.4704999923706,0.3490250706673,21.78859253882,0.2952801883221,194.19546102714037
43,0.4724999964237,0.3613541722298,21.77626343726,0.3034131228924,199.54420788129826
44,0.4745000004768,0.3735459446907,21.7640716648,0.3120495975018,205.2241154225117
45,0.47650000453,0.3855393528938,21.7520782566,0.3212506473064,211.27532434001918
46,0.4784999936819,0.397303879261,21.74031373023,0.3310315310955,217.70786980631112
47,0.480499997735,0.4088090062141,21.72880860328,0.3438031375408,226.10730905008717
48,0.4825000017881,0.4200699925423,21.71754761695,0.3592908084393,236.29300896941268
49,0.4844999909401,0.4310868382454,21.70653077125,0.3766247928143,247.69296474114378
50,0.4864999949932,0.4418900609016,21.69572754859,0.3952710330486,259.9559453335728
51,0.4884999990463,0.4525101780891,21.6851074314,0.4149548709393,272.9013176448309
52,0.4905000030994,0.462977707386,21.67463990211,0.4348218142986,285.96711202400155
53,0.4924999922514,0.4733384251595,21.66427918433,0.4548718631268,299.1533284712821
54,0.4944999963045,0.4836228489876,21.6539947605,0.4755322635174,312.7409518118677
55,0.4965000003576,0.4938767552376,21.64374085425,0.4956433475018,325.96730894845246
56,0.4985000044107,0.5041306614876,21.633486948,0.5140454769135,338.0697463835302
57,0.5004999935627,0.5143998265266,21.62321778296,0.5294873714447,348.2253407857789
58,0.5024999976158,0.5246995091438,21.61291810035,0.5438306331635,357.6584027800259
59,0.5045000016689,0.534999191761,21.60261841773,0.5577466487885,366.8104799488804
60,0.5064999908209,0.5452988743782,21.59231873511,0.5714490413666,375.82206470503877
61,0.508499994874,0.5555985569954,21.5820190525,0.5851972103119,384.8637549782081
62,0.5104999989271,0.5658982396126,21.57171936988,0.5990979671478,394.0057969747037
63,0.5125000029802,0.5761826634407,21.56143494605,0.6134107112885,403.41878862429866
64,0.5144999921322,0.5864518284798,21.55116578101,0.6272962093353,412.5507954484353
65,0.5164999961853,0.5967209935188,21.54089661597,0.6409528255463,421.53227468764834
66,0.5185000002384,0.6069596409798,21.53065796851,0.6548535823822,430.674316684144
67,0.5205000042915,0.6171677708626,21.52044983863,0.6693494319916,440.2077304017173
68,0.5224999934435,0.6273606419563,21.51025696754,0.6842725276947,450.02212894461724
69,0.5244999974966,0.637522995472,21.50009461402,0.6989514827728,459.6759647301688
70,0.5265000015497,0.6476548314095,21.48996277808,0.7137372493744,469.4000467221015
71,0.5284999907017,0.6577561497688,21.47986145972,0.7286298274994,479.19437492034933
72,0.5304999947548,0.6678422093391,21.46977540015,0.7433545589447,488.878316222912
73,0.5324999988079,0.6778977513313,21.45971985816,0.757819890976,498.3916595958332
74,0.534500002861,0.6879380345345,21.44967957496,0.7724225521088,507.99531951972165
75,0.5370000004768,0.7004197239876,21.4371978855,0.7910687923431,520.2583001121507
76,0.5394999980927,0.7128556370735,21.42476197242,0.8100507259369,532.7420544960158
77,0.5419999957085,0.7252457737923,21.4123718357,0.8293378353119,545.4265123265336
78,0.5444999933243,0.7375945448875,21.4000230646,0.8479550480843,557.6704025716618
79,0.5469999909401,0.749908387661,21.38770922183,0.866448700428,569.8330314407646
80,0.5495000034571,0.7622069716454,21.37541063785,0.8859189152718,582.6379113393264
81,0.5520000010729,0.7744445204735,21.36317308902,0.9060910344124,595.9044091652154
82,0.5544999986887,0.7866668105125,21.35095079898,0.9260495305061,609.0304145784081
83,0.5569999963045,0.7988738417625,21.33874376773,0.9462216496468,622.2969124043628
84,0.5594999939203,0.8110656142235,21.32655199527,0.9655545353889,635.0114757518257
85,0.5619999915361,0.8232726454735,21.31434496402,0.9845822453499,647.525335652702
86,0.5645000040531,0.8354644179344,21.30215319156,1.004266023636,660.4706687640976
87,0.5670000016689,0.8476409316063,21.28997667789,1.024743318558,673.9378700367705
88,0.5694999992847,0.8598174452782,21.27780016421,1.044671297073,687.0438051049167
89,0.5719999969006,0.87199395895,21.26562365054,1.064782381058,700.270162241896
90,0.5744999945164,0.8841704726219,21.25344713687,1.085198640823,713.6972228247387
91,0.5769999921322,0.8963775038719,21.24124010562,1.104912996292,726.6626654807803
92,0.5795000046492,0.9085845351219,21.22903307437,1.124123811722,739.2969474498323
93,0.582000002265,0.9207763075829,21.21684130191,1.143838167191,752.2623901058739
94,0.5844999998808,0.933013856411,21.20460375308,1.164254426956,765.6894506887166
95,0.5869999974966,0.9452514052391,21.19236620425,1.184579133987,779.0563002378003
96,0.5894999951124,0.9575042128563,21.18011339664,1.204659700394,792.2625870301933
97,0.5919999927282,0.9697570204735,21.16786058902,1.2247402668,805.4688738219287
98,0.594499990344,0.9820250868797,21.15559252261,1.245126008987,818.875864060185
99,0.597000002861,0.994293153286,21.14332445621,1.265481233597,832.2627839545127
100,0.5995000004768,1.006561160088,21.1310564494,1.286141633987,845.8504072947037
101,0.6019999980927,1.018844485283,21.11877312421,1.307320833206,859.7792264948354
102,0.6044999957085,1.031143069267,21.10647454022,1.327981233597,873.366849835684
103,0.6069999933243,1.043441653252,21.09417595624,1.34827542305,886.7136290401813
104,0.6094999909401,1.055755496025,21.08186211347,1.369698762894,900.8030109976613
105,0.6120000034571,1.068099856377,21.06951775311,1.390908479691,914.7519005423793
106,0.6145000010729,1.080444216728,21.05717339276,1.411538362503,928.319453537984
107,0.6169999986887,1.092803835869,21.04481377362,1.431954622269,941.7465141214843
108,0.6194999963045,1.105163455009,21.03245415448,1.453286409378,955.7756850445477
109,0.6219999939203,1.11752307415,21.02009453534,1.474557161331,969.7647152784383
110,0.6244999915361,1.129913210869,21.00770439862,1.495888948441,983.7938862021593
111,0.6270000040531,1.142288088799,20.99532952069,1.517190217972,997.8029867806363
112,0.6295000016689,1.154678225517,20.98293938397,1.539132356644,1012.2335645973992
113,0.6319999992847,1.167068362236,20.97054924726,1.561227083206,1026.7644941370938
114,0.6344999969006,1.179473757744,20.95814385175,1.583321809769,1041.2954236774463
115,0.6369999945164,1.191894412041,20.94572319745,1.605843782425,1056.1073380426647
116,0.6394999921322,1.204345583916,20.93327202558,1.628396272659,1070.9393227524697
117,0.6420000046492,1.216842532158,20.92077507733,1.650368928909,1085.389970913819
118,0.6439999938011,1.226852297783,20.91076531171,1.667489290237,1096.649434272788
119,0.6459999978542,1.236862063408,20.90075554608,1.685342073441,1108.3905859044598
120,0.6480000019073,1.246902346611,20.89071526288,1.703438997269,1120.2923002928223
121,0.6499999910593,1.256927371025,20.88069023847,1.720803499222,1131.7123264091397
122,0.6519999951124,1.266967654228,20.87064995526,1.737740755081,1142.8513676999332
123,0.6539999991655,1.277007937431,20.86060967206,1.7550137043,1154.2111827824915
124,0.6560000032187,1.287032961845,20.85058464765,1.772988557816,1166.0326157925088
125,0.6579999923706,1.297057986259,20.84055962323,1.791085481644,1177.934330180871
126,0.6599999964237,1.307067751884,20.83054985761,1.808694124222,1189.514919054537
127,0.6624999940395,1.319549441338,20.81806816815,1.831307649612,1204.3870444535144
128,0.6649999916553,1.332031130791,20.8055864787,1.854073762894,1219.359521576739
129,0.6675000041723,1.344497561455,20.79312004804,1.876870393753,1234.3520690438922
130,0.6700000017881,1.35694873333,20.78066887616,1.89905667305,1248.9432096180037
131,0.672499999404,1.369384646416,20.76823296308,1.921303987503,1263.5744908812876
132,0.6749999970198,1.381805300713,20.75581230878,1.944283723831,1278.6874604166164
133,0.6774999946356,1.39421069622,20.74340691327,1.968270540237,1294.462751325925
134,0.6799999922514,1.406600832939,20.73101677655,1.991769075394,1309.9169167211946
135,0.6825000047684,1.418990969658,20.71862663983,2.014931917191,1325.1503083246992
136,0.6850000023842,1.431381106377,20.70623650311,2.037911653519,1340.2632778600282
137,0.6875,1.443771243095,20.6938463664,2.061043977737,1355.4765991182887
138,0.6899999976158,1.456146121025,20.68147148847,2.084084749222,1370.629709343448
139,0.6924999952316,1.468505740166,20.66911186933,2.107613801956,1386.1039450826463
140,0.6949999928474,1.480880618095,20.6567369914,2.131112337112,1401.5581104772582
141,0.6974999904633,1.493240237236,20.64437737226,2.154305696487,1416.8115724253491
142,0.7000000029802,1.505615115166,20.63200249433,2.178536653519,1432.7474260926638
143,0.702500000596,1.517989993095,20.6196276164,2.203225374222,1448.9843349294308
144,0.7049999982119,1.530395388603,20.60722222089,2.227761507034,1465.1208920426088
145,0.7074999958277,1.542800784111,20.59481682538,2.251839876175,1480.956393986334
146,0.7099999934435,1.555236697197,20.58238091229,2.275857210159,1496.751755240229
147,0.7124999910593,1.567703127861,20.56991448163,2.300057649612,1512.6675385622993
148,0.7150000035763,1.580184817314,20.55743279218,2.3243496418,1528.6435329187866
149,0.7175000011921,1.592666506767,20.54495110272,2.348428010941,1544.4790348625118
150,0.7199999988079,1.605163455009,20.53245415448,2.373299837112,1560.836365766797
151,0.7224999964237,1.617675662041,20.51994194745,2.399178743362,1577.8560180457196
152,0.7245000004768,1.627685427666,20.50993218183,2.419228792191,1591.0422344935262
153,0.72650000453,1.637725710869,20.49989189862,2.438210725784,1603.5259888768653
154,0.7284999936819,1.647750735283,20.48986687421,2.457253694534,1616.0498839500349
155,0.730499997735,1.657791018486,20.47982659101,2.476174592972,1628.4934976448585
156,0.7325000017881,1.6678160429,20.46980156659,2.495034456253,1640.8969706498524
157,0.7344999909401,1.677841067314,20.45977654218,2.514626741409,1653.7821319268912
158,0.7364999949932,1.687850832939,20.44976677655,2.534066438675,1666.5669414809981
159,0.738999992609,1.700332522392,20.4372850871,2.558999300003,1682.9644130751135
160,0.741500005126,1.712814211845,20.42480339765,2.584786653519,1699.9238543202773
161,0.7440000027418,1.725280642509,20.41233696698,2.611489534378,1717.4854059050035
162,0.7465000003576,1.737762331963,20.39985527753,2.637917757034,1734.8663243877957
163,0.7489999979734,1.750259280205,20.38735832929,2.66370511055,1751.825765632959
164,0.7510000020266,1.760284304619,20.37733330487,2.683480501175,1764.8313489781733
165,0.7529999911785,1.770294070244,20.36732353925,2.703347444534,1777.897143357147
166,0.7549999952316,1.780334353447,20.35728325604,2.723519563675,1791.1636411832988
167,0.7569999992847,1.790359377861,20.34725823163,2.743630647659,1804.3899983196206
168,0.7590000033379,1.800414919853,20.33720268964,2.763955354691,1817.7568478693618
169,0.7609999924898,1.810455203056,20.32716240644,2.784463167191,1831.244119486621
170,0.7629999965429,1.820526003838,20.31709160565,2.805001497269,1844.751461448467
171,0.765000000596,1.83058154583,20.30703606366,2.825265169144,1858.0781703083778
172,0.7670000046492,1.840652346611,20.29696526288,2.845650911331,1871.4851605466342
173,0.7689999938011,1.850723147392,20.2868944621,2.866677522659,1885.3136280231765
174,0.7709999978542,1.860809206963,20.27680840253,2.887063264847,1898.7206182620903
175,0.7730000019073,1.870895266533,20.26672234296,2.90686917305,1911.7462719518912
176,0.7749999910593,1.880981326103,20.25663628339,2.926980257034,1924.972629088213
177,0.7769999951124,1.891067385674,20.24655022382,2.947610139847,1938.5401820844752
178,0.7789999991655,1.901138186455,20.23647942304,2.968819856644,1952.4890716291932
179,0.7810000032187,1.911208987236,20.22640862226,2.990578889847,1966.7992273777804
180,0.7829999923706,1.921295046806,20.21632256269,3.012185335159,1981.0090314027786
181,0.7849999964237,1.931381106377,20.20623650311,3.033272981644,1994.8776395691511
182,0.7870000004768,1.941467165947,20.19615044354,3.054452180862,2008.8064587686251
183,0.78900000453,1.951553225517,20.18606438397,3.075661897659,2022.7553483133431
184,0.7909999936819,1.961654543877,20.17596306561,3.096352815628,2036.363041998778
185,0.792999997735,1.971740603447,20.16587700604,3.116402864456,2049.549258445927
186,0.7950000017881,1.981826305389,20.1557913041,3.136850118637,2062.996702973045
187,0.7969999909401,1.991881847382,20.14573576211,3.157907247543,2076.845240794174
188,0.7989999949932,2.001922130585,20.13569547891,3.179086446762,2090.7740599943054
189,0.8009999990463,2.011962413788,20.1256551957,3.200326681137,2104.74301988361
190,0.8030000030994,2.021972179413,20.11564543008,3.221627950668,2118.752120462087
191,0.8049999922514,2.031981945038,20.10563566445,3.243325948715,2133.0221355215012
192,0.8069999963045,2.041991710663,20.09562589883,3.265573263168,2147.6534167847853
193,0.8094999939203,2.054473400116,20.08314420938,3.293466329575,2165.9977118123247
194,0.8119999915361,2.066970348358,20.07064726113,3.321084737778,2184.161373737272
195,0.8145000040531,2.0794672966,20.05815031289,3.348764181137,2202.3651763513917
196,0.8164999932051,2.089477062225,20.04814054727,3.371286153793,2217.1770907166106
197,0.8184999972582,2.099517345428,20.03810026406,3.393502950668,2231.788301635308
198,0.8205000013113,2.109557628632,20.02805998086,3.415658712387,2246.359371864833
199,0.8224999904633,2.119628429413,20.01798918008,3.438058614731,2261.091004851706
200,0.8244999945164,2.129714488983,20.00790312051,3.4607026577,2275.983200595928
201,0.8264999985695,2.139815807343,19.99780180215,3.483468770981,2290.955677718495
202,0.8285000026226,2.149962902069,19.98765470742,3.505807638168,2305.6471700155375
203,0.8304999917746,2.160109996796,19.9775076127,3.527871847153,2320.1580292113035
204,0.8324999958277,2.1702876091,19.96733000039,3.549875020981,2334.628747717239
205,0.8344999998808,2.180480480194,19.9571371293,3.572213888168,2349.3202400142823
206,0.8365000039339,2.190688610077,19.94692899941,3.594613790512,2364.0518730011554
207,0.8384999930859,2.200911998749,19.93670561074,3.616647481918,2378.5426618516776
208,0.840499997139,2.211120128632,19.92649748086,3.638681173325,2393.033450702857
209,0.8425000011921,2.221343517303,19.91627409219,3.661416769028,2407.9858574808377
210,0.844499990344,2.231566905975,19.90605070352,3.684427022934,2423.1188973607527
211,0.8464999943972,2.241805553436,19.89581205606,3.706857442856,2437.8706006922125
212,0.8484999984503,2.252028942108,19.88558866738,3.729043722153,2452.4617412663238
213,0.8505000025034,2.262237071991,19.8753805375,3.751657247543,2467.3338666653017
214,0.8524999916553,2.272460460663,19.86515714883,3.774698019028,2482.4869768904605
215,0.8544999957085,2.282653331757,19.85496427773,3.797403097153,2497.419313323855
216,0.8564999997616,2.29284620285,19.84477140664,3.819986104965,2512.2713683782463
217,0.8585000038147,2.303023815155,19.83459379434,3.84269118309,2527.2037048116404
218,0.8604999929667,2.31320142746,19.82441618203,3.865762472153,2542.376885381386
219,0.8624999970198,2.323348522186,19.81426908731,3.889261007309,2557.831050775998
220,0.8645000010729,2.333495616913,19.80412199258,3.912606954575,2573.184864447678
221,0.866500005126,2.343612194061,19.79400541543,3.935647726059,2588.33797467218
222,0.868499994278,2.353713512421,19.78390409707,3.9587495327,2603.531225586512
223,0.8704999983311,2.363799571991,19.7738180375,3.981973409653,2618.804757879189
224,0.8725000023842,2.373870372772,19.76374723672,4.005167007446,2634.058376626467
225,0.8744999915361,2.383910655975,19.75370695352,4.028635025024,2649.4924716764926
226,0.8764999955893,2.393950939178,19.74366667031,4.05198097229,2664.8462853481724
227,0.8784999996424,2.403960704803,19.73365690469,4.075296401978,2680.1800286752664
228,0.8805000036955,2.413985729218,19.72363188027,4.098611831665,2695.513772001703
229,0.8830000013113,2.426467418671,19.71115019082,4.127695083618,2714.64081047074
230,0.8854999989271,2.438964366913,19.69865324258,4.156686782837,2733.707637906018
231,0.8879999965429,2.451446056366,19.68617155313,4.186105728149,2753.0554501661622
232,0.8904999941587,2.463943004608,19.67367460488,4.215860366821,2772.624036218072
233,0.8924999982119,2.473952770233,19.66366483926,4.239419937134,2788.1183423025136
234,0.894500002265,2.483962535858,19.65365507363,4.262552261353,2803.3316635614324
235,0.8964999914169,2.493972301483,19.64364530801,4.285593032837,2818.484773785934
236,0.89849999547,2.503982067108,19.63363554238,4.308542251587,2833.5776729766762
237,0.9004999995232,2.513991832733,19.62362577676,4.332132339478,2849.092049405705
238,0.9025000035763,2.524016857147,19.61360075234,4.356149673462,2864.8874106596
239,0.9044999927282,2.534026622772,19.60359098672,4.380350112915,2880.80319398167
