,time,travel,position,force,stress
0,0.0,0.0,23.91405278234,-0.005610010586679,-3.689507915982755
1,0.0,0.0,23.91405445127,-0.005725405178964,-3.7653989067605718
2,0.0,0.0,23.91407582698,-0.007084867917001,-4.659470041916898
3,0.0,0.0,23.91407135664,-0.007393858395517,-4.862682281686119
4,0.0,0.0,23.91406522481,-0.007438800297678,-4.892239000202133
5,0.0,0.0,24.01282894876,-0.007098609115928,-4.668507148252606
6,0.0,0.0,24.0128270367,-0.007661276962608,-5.03855412807903
7,0.008000001311302,-1.158192753792e-05,24.01283861863,-0.007475608494133,-4.916446464714988
8,0.01099999248981,-1.983484253287e-06,24.01282902018,-0.007392519619316,-4.861801815363462
9,0.01299999654293,-4.194444045424e-06,24.01283123114,-0.007230752613395,-4.755413308663036
10,0.01399999856949,-4.715984687209e-06,24.01283175268,-0.007117026951164,-4.680619914859471
11,0.1145000010729,-1.061696548277e-05,24.01283765366,-0.006314402911812,-4.152762132598088
12,0.2149999886751,-3.812646411916e-07,24.01282741796,-0.006674712989479,-4.389725479319277
13,0.3149999976158,8.056052138272e-06,24.01281898065,-0.006232562009245,-4.0989382309838716
14,0.4155000001192,2.146975020878e-05,24.01280556695,-0.006021113600582,-3.959876001861427
15,0.5159999877214,-1.490128306614e-05,24.01284193798,-0.003722774330527,-2.448338581483444
16,0.6159999966621,0.00835922267288,24.00446781403,-0.0008334807353094,-0.5481511528775151
17,0.6374999880791,0.0186970513314,23.99412998537,0.01657488942146,10.900725548045145
18,0.64849999547,0.02895858697593,23.98386844972,0.0304026901722,19.99478687684718
19,0.6564999967813,0.03942230343819,23.97340473326,0.02598813176155,17.091486080884994
20,0.6634999960661,0.04984024167061,23.96298679503,0.0236026160419,15.52261575606798
21,0.6700000017881,0.06013610959053,23.95269092711,0.02631307765841,17.30519164172259
22,0.676499992609,0.07072570919991,23.9421013275,0.02979208156466,19.593210933936227
23,0.6829999983311,0.08138778805733,23.93143924864,0.03071494027972,20.200142860701657
24,0.689499989152,0.09172943234444,23.92109760435,0.03408081457019,22.41376075803317
25,0.6964999884367,0.1021473705769,23.91067966612,0.03584600612521,23.574665557560042
26,0.7039999961853,0.1122372448444,23.90058979185,0.05430914089084,35.71722408203044
27,0.7119999974966,0.1226361095905,23.89019092711,0.0712464004755,46.856267823060286
28,0.7199999988079,0.1331188976765,23.87970813902,0.08136297762394,53.50958708068317
29,0.7280000001192,0.1436932384968,23.8691337982,0.09239508211613,60.765016678362265
30,0.7360000014305,0.1543400585651,23.85848697813,0.1044914871454,68.7203995463374
31,0.743499994278,0.1644451916218,23.84838184508,0.1151383072138,75.72244104260126
32,0.7509999871254,0.1745198071003,23.8383072296,0.1202232986689,79.06666222301124
33,0.7589999884367,0.184754639864,23.82807239683,0.1277878433466,84.04159890770316
34,0.7674999982119,0.1948292553425,23.81799778136,0.14010168612,92.13998298143466
35,0.7769999951124,0.2052090466022,23.8076179901,0.1522095352411,100.10289222868228
36,0.7870000004768,0.2152130901814,23.79761394652,0.1643059402704,108.05827509667714
37,0.7985000014305,0.2256424725056,23.78718456419,0.1793282181025,117.93790225981151
38,0.8104999959469,0.2360508739948,23.7767761627,0.1987412124872,130.7051502620438
39,0.8214999884367,0.2461407482624,23.76668628844,0.2122872024775,139.61387450183545
40,0.8319999873638,0.2564041912556,23.75642284544,0.2230045944452,146.66232867007028
41,0.8419999927282,0.2665894329548,23.74623760374,0.2337486892939,153.72834438998257
42,0.8519999980927,0.2768814861774,23.73594555052,0.2446129471064,160.87338709198306
43,0.8620000034571,0.2870187759399,23.72580826076,0.2569246292114,168.9703501696144
44,0.872499987483,0.2973394393921,23.71548759731,0.2726373672485,179.3040688808231
45,0.8830000013113,0.30748462677,23.70534240993,0.2865533828735,188.45614604967767
46,0.8935000002384,0.3175916671753,23.69523536952,0.3001146316528,197.3749054617625
47,0.9039999991655,0.3277139663696,23.68511307033,0.3133478164673,206.07790866868925
48,0.9144999980927,0.3378744125366,23.67495262416,0.3275918960571,215.44574204270185
49,0.9249999970198,0.3481912612915,23.66463577541,0.3411874771118,224.38708059254495
50,0.9354999959469,0.3586168289185,23.65421020778,0.3567018508911,234.5903420634164
51,0.9455000013113,0.3686609268188,23.64416610988,0.3720369338989,244.67569025934986
52,0.9554999917746,0.379002571106,23.63382446559,0.387547492981,254.87644293718085
53,0.9649999886751,0.3891000747681,23.62372696193,0.4006586074829,263.4991647653677
54,0.9745000004768,0.3993082046509,23.61351883205,0.4137659072876,272.11937780051414
55,0.9839999973774,0.409478187561,23.60334884914,0.4266061782837,280.5639753198068
56,0.9939999878407,0.4199876785278,23.59283935817,0.4413080215454,290.2328638638639
57,1.003999993205,0.4301614761353,23.58266556056,0.4563455581665,300.1225261992915
58,1.014499992132,0.4405374526978,23.572289584,0.4732751846313,311.2565499041356
59,1.024999991059,0.4507761001587,23.56205093654,0.4898920059204,322.1848525761807
60,1.035499989986,0.4610643386841,23.55176269801,0.506272315979,332.957610077024
61,1.045999988914,0.4714784622192,23.54134857448,0.5213975906372,342.90497465336745
62,1.056499987841,0.4819231033325,23.53090393337,0.5367212295532,352.98279647004813
63,1.067000001669,0.4923830032349,23.52044403346,0.5532159805298,363.8308177634191
64,1.077500000596,0.5027894973755,23.51003753932,0.5698709487915,374.7842083662628
65,1.087999999523,0.5131044387817,23.49972259792,0.5876893997192,386.50278085958433
66,1.09849999845,0.5234842300415,23.48934280666,0.6052103042603,398.0256674924658
67,1.108499988914,0.5335626602173,23.47926437648,0.6208696365356,408.3242631004511
68,1.118499994278,0.5437331795692,23.46909385713,0.6352382898331,417.77402424867756
69,1.128499999642,0.5538650155067,23.45896202119,0.6504818201065,427.79916141058897
70,1.138499990106,0.5639320015907,23.44889503511,0.6649471521378,437.31250478351006
71,1.148999989033,0.5744033455849,23.43842369111,0.6815067529678,448.20317555922554
72,1.15949998796,0.5847316384315,23.42809539827,0.698138833046,459.1415134036296
73,1.170000001788,0.5950217843056,23.41780525239,0.7151829004288,470.3508009010013
74,1.180500000715,0.6053710579872,23.40745597871,0.7321697473526,481.5224565021093
75,1.190999999642,0.6158385872841,23.39698844941,0.749107003212,492.66149779316584
76,1.200999990106,0.6258483529091,23.38697868379,0.7640224695206,502.4708787499192
77,1.211499989033,0.636331140995,23.3764958957,0.780055642128,513.0153360801394
78,1.22199998796,0.6466918587685,23.36613517793,0.7971340417862,524.2472027152694
79,1.232500001788,0.6569991707802,23.35582786592,0.8131023645401,534.7490105630792
80,1.243000000715,0.6673064827919,23.34552055391,0.8298565149307,545.7676297860916
81,1.253499999642,0.6776748299599,23.33515220674,0.846576333046,556.7636698714115
82,1.263999998569,0.6880965828896,23.32473045381,0.8627468347549,567.398443752599
83,1.273999989033,0.6981483101845,23.31467872651,0.8780742883682,577.4787743623859
84,1.283999994397,0.7083449959755,23.30448204072,0.8955494165421,588.9715554782563
85,1.293999999762,0.7186370491982,23.2941899875,0.9115062952042,599.4658369468133
86,1.303999990225,0.7289062142372,23.28392082246,0.928191781044,610.4392978943092
87,1.313999995589,0.7390456795692,23.27378135713,0.9437748193741,620.6877176406971
88,1.324499994516,0.7495284676552,23.26329856904,0.9607273340225,631.8367941040468
89,1.334999993443,0.7598415017128,23.25298553499,0.9783283472061,643.4123653916317
90,1.345499992371,0.7701316475868,23.24269538911,0.996364235878,655.2739390907558
91,1.355999991298,0.7805686593056,23.23225837739,1.01467859745,667.3186546847891
92,1.365999996662,0.7907072305679,23.22211980613,1.031903147697,678.6466394548088
93,1.375999987125,0.8009039163589,23.21192312034,1.048577189445,689.6125740230518
94,1.38599999249,0.811043381691,23.20178365501,1.064629435539,700.1695753188687
95,1.396499991417,0.8215261697769,23.19130086692,1.081520915031,711.2785110927825
96,1.406999990344,0.8318201303482,23.18100690635,1.098538279533,722.4702370386085
97,1.417499989271,0.8420759439468,23.17075109275,1.117134928703,734.7006033210517
98,1.427999988198,0.8524862527847,23.16034078391,1.134846568108,746.3489296085186
99,1.437999993563,0.8625265359879,23.15030050071,1.150277018547,756.4969976312514
100,1.44849999249,0.8730207681656,23.13980626853,1.168228983879,768.3033778825
101,1.458999991417,0.883438706398,23.1293883303,1.185566782951,779.7058424471398
102,1.469499990344,0.8937612771988,23.1190657595,1.201439738274,790.1449304683476
103,1.479999989271,0.9039770364761,23.10885000022,1.218201518059,801.1685672774408
104,1.490499988198,0.9141870737076,23.09863996299,1.235028147697,812.2348535686156
105,1.500999987125,0.9244829416275,23.08834409507,1.252785563469,823.9132853729617
106,1.511500000954,0.9348207712173,23.07800626548,1.270207285881,835.3709433855431
107,1.521999999881,0.9452158212662,23.06761121543,1.287236094475,846.5701957107532
108,1.532499998808,0.9556452035904,23.05718183311,1.30472266674,858.0705032054159
109,1.542499989271,0.9656816720963,23.0471453646,1.321793437004,869.2973522545967
110,1.552499994636,0.9758478403091,23.03697919639,1.336983561516,879.2873663135477
111,1.5625,0.9861055612564,23.02672147544,1.354977488518,891.1213432887669
112,1.572499990463,0.996325135231,23.01650190147,1.372437357903,902.6040892324098
113,1.582499995828,1.006453156471,23.00637388023,1.389416575432,913.7707272471739
114,1.592999994755,1.016935944557,22.99589109214,1.407769083977,925.8405307722691
115,1.603499993682,1.027285218239,22.98554181846,1.426934123039,938.4447072237837
116,1.613999992609,1.037640333176,22.97518670352,1.444120407104,949.7475256631482
117,1.624499991536,1.0480697155,22.9647573212,1.460592269897,960.5804941980136
118,1.634999990463,1.058514356613,22.95431268009,1.478372573853,972.2739787611284
119,1.64549998939,1.068993330002,22.9438337067,1.496053695679,983.9022347033512
120,1.655499994755,1.079014539719,22.93381249698,1.512529373169,994.7377120311254
121,1.665500000119,1.089047193527,22.92377984317,1.529611587524,1005.9720874590328
122,1.675499990582,1.099079847336,22.91374718936,1.548170089722,1018.1773658110721
123,1.685499995947,1.109162092209,22.90366494449,1.566995620728,1030.5582596785705
124,1.695500001311,1.119297742844,22.89352929385,1.583795547485,1041.606984418068
125,1.705499991775,1.12936091423,22.88346612247,1.600793838501,1052.7861663986916
126,1.715999990702,1.139797925949,22.87302911075,1.619226455688,1064.9086545781615
127,1.726499989629,1.150135755539,22.86269128116,1.636953353882,1076.5670160379213
128,1.736999988556,1.160488843918,22.85233819278,1.654348373413,1088.007112498825
129,1.747499987483,1.170925855637,22.84190118106,1.673471450806,1100.5836922270269
130,1.757499992847,1.181011915207,22.83181512149,1.689939498901,1111.4141519683255
131,1.767499998212,1.191132307053,22.82169472965,1.706586837769,1122.362524985549
132,1.777499988675,1.201256513596,22.8115705231,1.725145339966,1134.5678033369306
133,1.78749999404,1.211354017258,22.80147301944,1.743368148804,1146.5523078972049
134,1.797999992967,1.221825361252,22.79100167545,1.761331558228,1158.3662145278377
135,1.808499991894,1.232144117355,22.78068291934,1.780763626099,1171.1460064954692
136,1.818999990821,1.242434263229,22.77039277347,1.797803878784,1182.352785199406
137,1.829499989748,1.25271487236,22.76011216434,1.814432144165,1193.2886142507696
138,1.839999988675,1.262982130051,22.74984490665,1.833414077759,1205.7723686347663
139,1.850499987602,1.273346662521,22.73948037418,1.852247238159,1218.1582800880826
140,1.861000001431,1.283818006516,22.72900903018,1.870420455933,1230.1101703385684
141,1.870999991894,1.293853163719,22.71897387298,1.888738870621,1242.1575515253553
142,1.880999997258,1.3039239645,22.7089030722,1.906271219254,1253.687964537555
143,1.890999987721,1.313964247704,22.698862789,1.922327280045,1264.2474746262808
144,1.90150000155,1.324408888817,22.68841814788,1.940992593765,1276.5229991837148
145,1.912000000477,1.334864974022,22.67796206268,1.96110367775,1289.749356320694
146,1.92199999094,1.344943404198,22.6678836325,1.979913949966,1302.1202150152417
147,1.931999996305,1.355140089989,22.65768694671,1.997728586197,1313.8362787158517
148,1.942000001669,1.365371108055,22.64745592864,2.015184640884,1325.3165158659283
149,1.951999992132,1.375556349754,22.63727068694,2.032125711441,1336.458065950288
150,1.961999997497,1.385646224022,22.62718081268,2.0487844944,1347.413965346238
151,1.97199998796,1.395667433739,22.61715960296,2.065588235855,1358.4651988793019
152,1.982500001788,1.406104445457,22.60672259124,2.085466623306,1371.5385196376594
153,1.993000000715,1.416579604149,22.59624743255,2.105833292007,1384.9329659107138
154,2.002999991179,1.426646590233,22.58618044647,2.124326944351,1397.095594780014
155,2.012999996543,1.436763167381,22.57606386932,2.141439676285,1408.3500405531654
156,2.022999987006,1.446814894676,22.56601214202,2.159197092056,1420.0284723568539
157,2.033500000834,1.457309126854,22.55551790984,2.177366495132,1431.9778538137732
158,2.043999999762,1.467769026756,22.54505800994,2.196703195572,1444.6949259547368
159,2.054499998689,1.478255629539,22.53457140716,2.216325998306,1457.6001575763619
160,2.064999997616,1.488749861717,22.52407717498,2.236696481705,1470.997112642983
161,2.075499996543,1.499251723289,22.51357531341,2.256712198257,1484.160749951979
162,2.085499987006,1.509326338768,22.50350069793,2.274305582047,1495.7313036540093
163,2.095499992371,1.519400954247,22.49342608245,2.290022134781,1506.0675311580612
164,2.105999991298,1.529815077782,22.48301195892,2.309591531754,1518.937639676989
165,2.116499990225,1.54014647007,22.47268056663,2.329118967056,1531.7801514712883
166,2.126999989152,1.550511002541,22.46231603416,2.347921609879,1544.145992580676
167,2.137499988079,1.560879349709,22.45194768699,2.369257211685,1558.177672296648
168,2.147999987006,1.571327805519,22.44149923118,2.389848947525,1571.7201373618486
169,2.157999992371,1.581406235695,22.431420801,2.40820145607,1583.7899408869437
170,2.167999997735,1.591564774513,22.42126226219,2.42667222023,1595.937516997475
171,2.177999988198,1.601708054543,22.41111898216,2.446390390396,1608.9054684464259
172,2.187999993563,1.611782670021,22.40104436668,2.465082406998,1621.1985545561947
173,2.19849999249,1.622192978859,22.39063405784,2.486280679703,1635.1399177215283
174,2.208999991417,1.632471680641,22.38035535606,2.506544351578,1648.4666265814394
175,2.219499990344,1.642700791359,22.37012624534,2.52583527565,1661.153593204866
176,2.229999989271,1.653072953224,22.35975408347,2.543443918228,1672.7341820785318
177,2.239999994636,1.663094162941,22.34973287376,2.560522317886,1683.9660487135302
178,2.25,1.673267960548,22.33955907615,2.577585458755,1695.1878801762355
179,2.259999990463,1.68357527256,22.32925176414,2.596597909927,1707.6917049048186
180,2.269999995828,1.693882584572,22.31894445213,2.616033792496,1720.4740056660169
181,2.280000001192,1.704022049904,22.30880498679,2.636652231216,1734.0340322822371
182,2.290500000119,1.714516282082,22.29831075462,2.657465219498,1747.7220073466751
183,2.300999999046,1.724972367287,22.28785466941,2.678419351578,1761.5028077546606
184,2.31099998951,1.734997391701,22.277829645,2.696340799332,1773.2891176613227
185,2.320999994874,1.745155930519,22.26767110618,2.714472055435,1785.2134111871803
186,2.331000000238,1.755295395851,22.25753164085,2.733194589615,1797.5265676415356
187,2.340999990702,1.76537001133,22.24745702537,2.75239777565,1810.155832024112
188,2.351499989629,1.775852799416,22.23697423728,2.771806955338,1822.9205712336327
189,2.361999988556,1.786259293556,22.22656774314,2.791437387466,1835.8308204410755
190,2.372499987483,1.796633601189,22.21619343551,2.81205701828,1849.391631055861
191,2.383000001311,1.807074427605,22.20575260909,2.832171916962,1862.620496985749
192,2.393500000238,1.817561030388,22.19526600631,2.8519282341,1875.6135363651038
193,2.403999999166,1.827990412712,22.18483662399,2.87281370163,1889.3491784980988
194,2.414499998093,1.838393092155,22.17443394454,2.894484996796,1903.6016320058359
195,2.424499988556,1.848433375359,22.16439366134,2.912337779999,1915.34278363685
196,2.43449999392,1.858580470085,22.15424656661,2.929435253143,1926.5871942370507
197,2.444499999285,1.868822932243,22.14400410446,2.946681499481,1937.9294477679316
198,2.454499989748,1.879065394402,22.1337616423,2.964213848114,1949.4598607801313
199,2.464499995112,1.88914000988,22.12368702682,2.982512950897,1961.4945412018717
200,2.47499999404,1.899428248405,22.11339878829,3.002410411835,1974.580405926089
201,2.485499992967,1.909579157829,22.10324787887,3.024703502655,1989.2417927062525
202,2.495999991894,1.919867396355,22.09295964034,3.045527935028,2002.9372941494169
203,2.505999997258,1.929907679558,22.08291935714,3.064555644989,2015.451154050293
204,2.515999987721,1.940157771111,22.07266926559,3.082358837128,2027.1596913715189
205,2.525999993086,1.950404047966,22.06242298873,3.100860118866,2039.327337826637
206,2.53599999845,1.960440516472,22.05238652023,3.119235515594,2051.412194109843
207,2.546499997377,1.970707774162,22.04211926254,3.141444683075,2066.0183874427225
208,2.556999996305,1.980904459953,22.03192257675,3.162551403046,2079.8995395742973
209,2.567499995232,1.991310954094,22.0215160826,3.184463024139,2094.310047045816
210,2.577500000596,2.001572370529,22.01125466617,3.20370054245,2106.9618905665457
211,2.587499991059,2.011971235275,22.00085580142,3.222735881805,2119.4807680532394
212,2.597499996424,2.02227473259,21.99055230411,3.242263317108,2132.3232798481968
213,2.607500001788,2.032337903976,21.98048913272,3.263934612274,2146.5757333559336
214,2.618000000715,2.042681455612,21.97014558109,3.285662174225,2160.865191561872
215,2.628499999642,2.052988767624,21.95983826907,3.308886051178,2176.1387238545494
216,2.638499990106,2.063048124313,21.94977891239,3.328646183014,2189.1342720274706
217,2.64849999547,2.073282957077,21.93954407962,3.346991062164,2201.19905796609
218,2.658500000834,2.083510160446,21.92931687625,3.365458011627,2213.344125283713
219,2.668499991298,2.093596220016,21.91923081668,3.386065006256,2226.8966255212067
220,2.678999990225,2.103960752487,21.90886628421,3.408686161041,2241.7737685066595
221,2.689499989152,2.114268064499,21.8985589722,3.431971073151,2257.087441489167
222,2.699999988079,2.124678373337,21.88814866336,3.453516483307,2271.2571048249924
223,2.709999993443,2.134714841843,21.87811219486,3.47349023819,2284.3931454106755
224,2.719999998808,2.14472079277,21.86810624393,3.493269443512,2297.401237548799
225,2.729999989271,2.154734373093,21.85809266361,3.513212680817,2310.5172077898956
226,2.739999994636,2.164778470993,21.84804856571,3.533476352692,2323.8439166498065
227,2.75,2.174826383591,21.83800065311,3.553595066071,2337.0752913726037
228,2.760499998927,2.185309171677,21.82751786502,3.574533939362,2350.846056608296
229,2.77049998939,2.195315122604,21.81751191409,3.595621585846,2364.714664774011
230,2.780499994755,2.205336332321,21.80749070438,3.615408420563,2377.7277744986095
231,2.790999993682,2.215777158737,21.79704987796,3.636473178864,2391.581329906214
232,2.801499992609,2.226168394089,21.78665864261,3.659323215485,2406.609000476722
233,2.811999991536,2.236658811569,21.77616822513,3.682455539703,2421.822321734983
234,2.821999996901,2.246721982956,21.76610505374,3.703394412994,2435.593086970675
235,2.831999987364,2.25687289238,21.75595414432,3.724657535553,2449.5770996187475
236,2.841999992728,2.267077207565,21.74574982913,3.745207309723,2463.0919679599774
237,2.851999998093,2.277186155319,21.73564088138,3.763617038727,2475.199403381336
238,2.86249999702,2.287600278854,21.72522675784,3.783224582672,2488.0945998306684
239,2.872999995947,2.297865629196,21.7149614075,3.804042816162,2501.7860244851095
240,2.883499994874,2.30807185173,21.70475518497,3.827411651611,2517.1548909149005
241,2.893999993801,2.318392515182,21.69443452152,3.850811004639,2532.543827689936
