,time,travel,position,force,stress
0,0.0,0.0,19.34573168391,-0.007695331703871,-4.2526044423709966
1,0.0,0.0,19.34572693044,-0.007698051165789,-4.254107275033496
2,0.0,0.0,19.34572485918,-0.0077730785124,-4.295568987117558
3,0.0,0.0,19.34572420353,-0.007831729017198,-4.327980507094768
4,0.0,0.0,19.34572082469,-0.007883942686021,-4.356834894213322
5,0.0,0.0,19.36258312118,-0.009315044619143,-5.147692348118647
6,0.0,0.0,19.36258991141,-0.009349019266665,-5.166467463024657
7,0.008000001311302,-2.679880708456e-06,19.36259259129,-0.009299797937274,-5.139266706503365
8,0.01100000739098,-1.647043973207e-06,19.36259155846,-0.009180774912238,-5.0734920440859
9,0.01299999654293,-8.242204785347e-08,19.36258999384,-0.009248783811927,-5.111075212696127
10,0.01399999856949,3.847759217024e-06,19.36258606365,-0.009244790300727,-5.1088683132246935
11,0.1140000075102,-1.678965054452e-05,19.36260670106,-0.009033280424774,-4.991983444229299
12,0.2145000100136,-7.018680207693e-06,19.36259693009,-0.006936270277947,-3.8331309074884024
13,0.3149999976158,1.662220347498e-05,19.36257328921,-0.009980151429772,-5.51524455852035
14,0.4150000065565,0.0007921250653453,19.36179778635,-0.00853818282485,-4.718381949990278
15,0.4500000029802,0.01109228469431,19.35149762672,0.02183924615383,12.068833259662181
16,0.4594999998808,0.02165518142283,19.34093472999,0.05079661309719,28.071291898417712
17,0.465499997139,0.03244314342737,19.33014676799,0.04789315164089,26.466777166310287
18,0.4705000072718,0.04363546520472,19.31895444621,0.04536674916744,25.070633270861816
19,0.4745000004768,0.05384359508753,19.30874631633,0.04999969899654,27.630900168077154
20,0.4785000085831,0.06521902233362,19.29737088908,0.0579838603735,32.0431180485861
21,0.4820000082254,0.07619009166956,19.28639981974,0.06781052052975,37.47354005536168
22,0.484999999404,0.08641348034143,19.27617643107,0.07558487355709,41.76981336662071
23,0.4880000054836,0.09742269665003,19.26516721476,0.08412979543209,46.49191945946903
24,0.4909999966621,0.1093169227242,19.25327298869,0.08633942902088,47.71301011251699
25,0.4935000091791,0.1198607459664,19.24272916545,0.08300156891346,45.868437419999154
26,0.4960000067949,0.1308775991201,19.23171231229,0.07678361237049,42.43226200422044
27,0.4985000044107,0.1422301381826,19.22035977323,0.06688065826893,36.959678335902964
28,0.5010000020266,0.1537505239248,19.20883938749,0.05635972321033,31.145585209080014
29,0.5034999996424,0.1653319448233,19.19725796659,0.04789109528065,26.465640777779125
30,0.5059999972582,0.1768370717764,19.18575283964,0.03915543854237,21.638130531073273
31,0.5085000097752,0.1881285756826,19.17446133573,0.0318388491869,17.594827189071207
32,0.511000007391,0.1991149038076,19.16347500761,0.03126855194569,17.27966876903564
33,0.5135000050068,0.2098265737295,19.15276333768,0.0369715243578,20.43125296939681
34,0.5160000026226,0.2202483266592,19.14234158475,0.04491372406483,24.82028193605246
35,0.5185000002384,0.230456456542,19.13213345487,0.0516199618578,28.52629198570822
36,0.5209999978542,0.240466222167,19.12212368925,0.05593819916248,30.91264202905421
37,0.5240000039339,0.252215474844,19.11037443657,0.06024117767811,33.290559740098445
38,0.5270000100136,0.263637393713,19.0989525177,0.06426198035479,35.512541063677425
39,0.5300000011921,0.274738162756,19.08785174866,0.06597668677568,36.46012440685818
40,0.5330000072718,0.2854727208614,19.07711719055,0.0686107352376,37.9157557716435
41,0.5359999984503,0.2958181798458,19.06677173157,0.0711627677083,39.326063350264775
42,0.5394999980927,0.307338565588,19.05525134583,0.07302386313677,40.35454438153814
43,0.542999997735,0.3182028234005,19.04438708801,0.08350665122271,46.147556677587374
44,0.5464999973774,0.3285482823849,19.03404162903,0.1002150252461,55.38096055554132
45,0.5499999970198,0.3386190831661,19.02397082825,0.1178694441915,65.13716903670665
46,0.554000005126,0.3500250279903,19.01256488342,0.1345701962709,74.3663608658343
47,0.5575000047684,0.360072940588,19.00251697083,0.14532764256,80.3111551434587
48,0.5610000044107,0.3702658116817,18.99232409973,0.1546889096498,85.48439101479605
49,0.5645000040531,0.3806341588497,18.98195575256,0.1617041379213,89.36115579371007
50,0.5680000036955,0.3911550939083,18.9714348175,0.1684218198061,93.07349009261561
51,0.5715000033379,0.4018438756466,18.96074603577,0.1756468564272,97.0661994407685
52,0.5750000029802,0.4126699864864,18.94991992493,0.1811133176088,100.08708249032269
53,0.5785000026226,0.4236257970333,18.93896411438,0.1866827756166,103.16488378297583
54,0.582000002265,0.43466553092,18.92792438049,0.1921492367983,106.18576683258529
55,0.5855000019073,0.445766299963,18.91682361145,0.1970587521791,108.89886975286308
56,0.5890000015497,0.456867069006,18.90572284241,0.2027197629213,112.02726503938202
57,0.5925000011921,0.4679296910763,18.89466022034,0.2074919492006,114.66447696891643
58,0.5960000008345,0.4789083898067,18.88368152161,0.2116728574038,116.9749360215301
59,0.5995000004768,0.4897573888302,18.87283252258,0.2180128842592,120.47857009573939
60,0.6030000001192,0.5004613995552,18.86212851186,0.2265196591616,125.17959535784715
61,0.6064999997616,0.5110509991646,18.85153891225,0.2359267026186,130.37812822611735
62,0.609999999404,0.521526157856,18.84106375356,0.2455473691225,135.69471374672258
63,0.6134999990463,0.5319173932076,18.83067251821,0.2549086213112,140.86794138339422
64,0.6169999986887,0.5422628521919,18.82032705922,0.2648344635963,146.35317355014496
65,0.6204999983311,0.5525930523872,18.80999685903,0.2754240632057,152.20521217236725
66,0.6239999979734,0.5629308819771,18.79965902944,0.2851896882057,157.6019048499082
67,0.6274999976158,0.5732763409615,18.78931357045,0.2936735749245,162.29028161354952
68,0.6309999972582,0.5836065411568,18.77898337026,0.301981985569,166.8816865555964
69,0.6344999969006,0.5939443707466,18.76864554067,0.310885488987,171.80195245771543
70,0.6379999965429,0.6042669415474,18.75832296987,0.3194990754128,176.56200404596305
71,0.6414999961853,0.6145895123482,18.74800039907,0.3282118439674,181.37686579415828
72,0.6449999958277,0.6248891949654,18.73770071645,0.3371077179909,186.29291553014025
73,0.6485000103712,0.6351507306099,18.7274391808,0.3462629914284,191.3523149153349
74,0.6520000100136,0.6453970074654,18.71719290395,0.3548536896706,196.09971800511607
75,0.655500009656,0.6556203961372,18.70696951528,0.3646269440651,201.50062684879407
76,0.6590000092983,0.6658590435982,18.69673086782,0.3745298981667,206.97321051713368
77,0.6625000089407,0.6761282086372,18.68646170278,0.3837767243385,212.08320389613883
78,0.6660000085831,0.6864431500435,18.67614676137,0.3930159211159,217.18898110906213
79,0.6695000082254,0.6967809796333,18.66580893178,0.4020338654518,222.1724895034581
80,0.6730000078678,0.7071493268013,18.65544058461,0.4120207428932,227.69145099947116
81,0.6765000075102,0.7175405621529,18.64504934926,0.4220839142799,233.25257415702055
82,0.6800000071526,0.7279699444771,18.63461996694,0.4332380890846,239.41660907465624
83,0.6835000067949,0.7384298443794,18.62416006703,0.4431715607643,244.90605740759932
84,0.6870000064373,0.7489202618599,18.61366964955,0.4527693390846,250.20999442973812
85,0.6905000060797,0.7594183087349,18.60317160268,0.4635801911354,256.1843018704325
86,0.694000005722,0.769946873188,18.59264303823,0.4744520783424,262.19233864033384
87,0.6975000053644,0.7804906964302,18.58209921498,0.4853544831276,268.21724007489394
88,0.7010000050068,0.7910802960396,18.57150961537,0.4962568879128,274.24214150945403
89,0.7045000046492,0.8016775250435,18.56091238637,0.5067854523659,280.0604508024141
90,0.7080000042915,0.8122900128365,18.55029989858,0.5173063874245,285.874543929237
91,0.7115000039339,0.8228719830513,18.53971792836,0.528658926487,292.1481991668783
92,0.7150000035763,0.8334310650826,18.52915884633,0.540392935276,298.6326627122016
93,0.7185000032187,0.8439825177193,18.51860739369,0.5522719025612,305.1972334145158
94,0.722000002861,0.854533970356,18.50805594106,0.5634413361549,311.36970066442564
95,0.7255000025034,0.8650472760201,18.49754263539,0.5741835236549,317.3060626097207
96,0.7290000021458,0.8755605816841,18.48702932973,0.5849638581276,323.2635053858115
97,0.7325000017881,0.8860509991646,18.47653891225,0.5960798859596,329.4064594726514
98,0.7360000014305,0.8965185284615,18.46607138295,0.6086302399635,336.3420527965189
99,0.7395000010729,0.9069860577583,18.45560385365,0.6201887726784,342.7295445203582
100,0.7430000007153,0.9174306988716,18.44515921254,0.6316710114479,349.0748745826059
101,0.7465000003576,0.9278600811958,18.43472983022,0.6438627839088,355.81230809720273
102,0.75,0.9382818341255,18.42430807729,0.6565352082253,362.8153600795947
103,0.7534999996424,0.9487188458443,18.41387106557,0.6696882843971,370.08403052961626
104,0.7569999992847,0.9591711163521,18.40341879506,0.6821623444557,376.9774621919474
105,0.7604999989271,0.969638645649,18.39295126576,0.6949873566628,384.06483749741216
106,0.7639999985695,0.9801290631294,18.38246084828,0.7073622345924,390.90345899968526
107,0.7674999982119,0.9906271100044,18.37196280141,0.7205153107643,398.172129449762
108,0.7709999978542,1.00111758709,18.36147232432,0.7337828278542,405.50404239217096
109,0.7744999974966,1.011630892754,18.35095901866,0.7483702301979,413.56535207922013
110,0.777999997139,1.022175908089,18.34041400332,0.7621768116951,421.195163511444
111,0.7814999967813,1.03273499012,18.32985492129,0.7758486866951,428.7505332600013
112,0.7849999964237,1.043339848518,18.31925006289,0.7889025807381,435.9643935500753
113,0.7884999960661,1.053959965706,18.30862994571,0.8022311329842,443.33003582169124
114,0.7919999957085,1.064572453499,18.29801745791,0.8153765797615,450.5944901055757
115,0.795500010252,1.075207829475,18.28738208194,0.8295519948006,458.42812682033946
116,0.7990000098944,1.085835576057,18.27675433536,0.8437121510506,466.25333120277384
117,0.8025000095367,1.096463322639,18.26612658877,0.857979118824,474.13756191134803
118,0.8060000091791,1.107075810432,18.25551410098,0.8728411793709,482.35065357999446
119,0.8095000088215,1.117711186409,18.244878725,0.8873370289803,490.3613692732331
120,0.8130000084639,1.128308415413,18.234281496,0.9011767506599,498.0094946771373
121,0.8165000081062,1.138898015022,18.22369189639,0.9146273732185,505.44259560722253
122,0.8200000077486,1.149464726448,18.21312518497,0.9291842579842,513.4870406297234
123,0.823500007391,1.159993290901,18.20259662051,0.9436343312263,521.472459325974
124,0.8270000070333,1.170491337776,18.19209857364,0.9587557911873,529.8289006438883
125,0.8305000066757,1.180943608284,18.18164630313,0.9741976857185,538.3624209402223
126,0.8340000063181,1.191357731819,18.17123217959,0.9898379445076,547.0055615566172
127,0.8375000059605,1.201748967171,18.16084094424,1.005676627159,555.7583554317358
128,0.8410000056028,1.212147831917,18.1504420795,1.022781729698,565.2109999497065
129,0.8445000052452,1.222531437874,18.14005847354,1.038589835167,573.9468962216141
130,0.8480000048876,1.23293030262,18.12965960879,1.053543448448,582.2105818839605
131,0.85150000453,1.24335205555,18.11923785586,1.069153189659,590.8368578357519
132,0.8550000041723,1.253781437874,18.10880847354,1.084640860558,599.3956751293503
133,0.8585000038147,1.264218449593,18.09837146182,1.100326895714,608.0641127425123
134,0.8620000034571,1.2746707201,18.08791919131,1.11601293087,616.7325503556742
135,0.8655000030994,1.285138249397,18.07745166202,1.132263541222,625.7129842646365
136,0.8690000027418,1.295605778694,18.06698413272,1.148086905479,634.4573128682655
137,0.8725000023842,1.30608856678,18.05650134463,1.164734244347,643.6569874174601
138,0.8760000020266,1.316578984261,18.04601092715,1.182190299034,653.3035755782882
139,0.8795000016689,1.327122807503,18.03546710391,1.198929190636,662.5538441211276
140,0.8830000013113,1.337697148323,18.02489276309,1.215866446495,671.9137329835304
141,0.8865000009537,1.348294377327,18.01429553409,1.232468008995,681.08811053535
142,0.890000000596,1.358891606331,18.00369830508,1.248398184776,689.8914654654504
143,0.8935000002384,1.369504094124,17.99308581729,1.265442252159,699.3103806543248
144,0.8969999998808,1.380093693733,17.98249621768,1.283462882042,709.2689651109531
145,0.9004999995232,1.390652775764,17.97193713565,1.30075109005,718.8227976167659
146,0.9039999991655,1.401204228401,17.96138568301,1.318390250206,728.5705737654362
147,0.9074999988079,1.411740422249,17.95084948916,1.336761832237,738.7231018649219
148,0.9109999984503,1.422276616096,17.94031329532,1.354935050011,748.7660096448441
149,0.9144999980927,1.432797551155,17.92979236026,1.37382543087,759.205237042755
150,0.917999997735,1.443333745003,17.91925616641,1.392517447472,769.5348441211024
151,0.9214999973774,1.453900456429,17.90868945498,1.410049796104,779.2235939433012
152,0.9249999970198,1.464474797249,17.89811511416,1.426987051964,788.5834828062567
153,0.9284999966621,1.475018620491,17.88757129092,1.445129752159,798.6095259210781
154,0.9319999963045,1.48553955555,17.87705035586,1.463318228722,808.6608660332743
155,0.9354999959469,1.496052861214,17.8665370502,1.482925772667,819.4964130497268
156,0.9389999955893,1.506558537483,17.85603137393,1.502197623253,830.1464487555961
157,0.9425000101328,1.517064213753,17.84552569766,1.520752310753,840.4001648429239
158,0.9460000097752,1.527592778206,17.83499713321,1.539810538292,850.9321478964027
159,0.9495000094175,1.538144230843,17.82444568057,1.558838248253,861.4472662853335
160,0.9530000090599,1.548710942268,17.81387896914,1.578140616417,872.114166655751
161,0.9565000087023,1.559285283089,17.80330462832,1.597030997276,882.5533940536619
162,0.9600000083447,1.569867253304,17.79272265811,1.617172598839,893.6840727013665
163,0.963500007987,1.580456852913,17.7821330585,1.637573599815,904.958100997731
164,0.9670000076294,1.591061711311,17.7715282001,1.657089591026,915.7430540205387
165,0.9705000072718,1.601658940315,17.7609309711,1.677383780479,926.9580559909845
166,0.9740000069141,1.612271428108,17.75031848331,1.698273062706,938.5019189217787
167,0.9775000065565,1.62289917469,17.73969073672,1.718765616417,949.8265412123404
168,0.9810000061989,1.633549809456,17.72904010196,1.738785147667,960.8897612012994
169,0.9845000058413,1.644208073616,17.7183818378,1.758942008018,972.0288721807254
170,0.9880000054836,1.654881596565,17.70770831485,1.779602408409,983.4462501268553
171,0.991500005126,1.665562748909,17.6970271625,1.801330924034,995.4538913343838
172,0.9950000047684,1.676251530647,17.68633838077,1.821228384972,1006.4496526651496
173,0.9985000044107,1.686917424202,17.67567248721,1.841675162315,1017.7489779583367
174,1.002000004053,1.69760620594,17.66498370547,1.86308324337,1029.5795401875562
175,1.005500003695,1.708279728889,17.65431018252,1.884369254112,1041.3426437580301
176,1.009000003338,1.718953251839,17.64363665957,1.905640006065,1053.09731499623
177,1.01250000298,1.729619145393,17.63297076602,1.92688024044,1064.8351215698813
178,1.016000002623,1.740269780159,17.62232013125,1.948746085167,1076.9186537684295
179,1.019500002265,1.750935673714,17.6116542377,1.9711612463,1089.3057499299514
180,1.023000001907,1.761593937874,17.60099597354,1.993011832237,1101.380849795673
181,1.02650000155,1.772252202034,17.59033770938,2.01380944252,1112.8740528548335
182,1.030000001192,1.782895684242,17.57969422717,2.035609960556,1124.9214841305052
183,1.033500000834,1.793538689613,17.5690512218,2.057506322861,1137.0218809936018
184,1.037000000477,1.804158806801,17.55843110461,2.078960180283,1148.8777402196436
185,1.040500000119,1.814756035805,17.54783387561,2.100780248642,1160.935975420817
186,1.043999999762,1.82533800602,17.53725190539,2.123180150986,1173.3146392500646
187,1.047499999404,1.835919976234,17.52666993518,2.146983861923,1186.4690776512944
188,1.050999999046,1.84648668766,17.51610322375,2.169429540634,1198.8730384773642
189,1.054499998689,1.857045769691,17.50554414172,2.192271947861,1211.4962399436668
190,1.057999998331,1.867589592934,17.49500031848,2.21458029747,1223.824309778717
191,1.061499997973,1.878125786781,17.48446412463,2.236446142197,1235.9078419772652
192,1.064999997616,1.888623833656,17.47396607776,2.258510351181,1248.100994495377
193,1.068499997258,1.899114251137,17.46347566028,2.281139135361,1260.6061433092893
194,1.071999996901,1.909597039223,17.45299287219,2.303462743759,1272.9426454766137
195,1.075499996543,1.920072197914,17.4425177135,2.32688498497,1285.8862755704379
196,1.078999996185,1.930539727211,17.4320501842,2.350688695908,1299.0407139722201
197,1.082499995828,1.940999627113,17.4215902843,2.374019384384,1311.933750071847
198,1.086000010371,1.951474785805,17.41111512561,2.396434545517,1324.320846233369
199,1.089500010014,1.961927056313,17.4006628551,2.418163061142,1336.3284874408976
200,1.093000009656,1.972364068031,17.39022584338,2.441112279892,1349.0107152331186
201,1.096500009298,1.982762932777,17.37982697864,2.463573217392,1361.4231083914628
202,1.100000008941,1.993131279945,17.36945863147,2.486415624619,1374.0463098577652
203,1.103500008583,2.003469228745,17.35912068267,2.509639501572,1386.880319631473
204,1.107000008225,2.013791799545,17.34879811187,2.533473730087,1400.051622697251
205,1.110500007868,2.024106740952,17.33848317046,2.557430028915,1413.2903844217744
206,1.11400000751,2.034429311752,17.32816059966,2.582134008408,1426.9423304299405
207,1.117500007153,2.044767141342,17.31782277007,2.606303930283,1440.2991448068542
208,1.121000006795,2.055104970932,17.30748494048,2.630397558212,1453.6137975218448
209,1.124500006437,2.065458059311,17.2971318521,2.654277563095,1466.8103975849979
210,1.12800000608,2.075818777084,17.28677113433,2.678645849228,1480.2768322820277
211,1.131500005722,2.086171865463,17.27641804595,2.702586889267,1493.5071616742773
212,1.135000005364,2.096532583237,17.26605732818,2.726421117783,1506.6784647406078
213,1.138500005007,2.10689330101,17.2556966104,2.751842260361,1520.7267303667627
214,1.142000004649,2.117276906967,17.24531300445,2.776881933212,1534.564187684959
215,1.145500004292,2.127668142319,17.23492176909,2.800533056259,1547.6343027634475
216,1.149000003934,2.138074636459,17.22451527495,2.824031591415,1560.6200945186422
217,1.152500003576,2.1484811306,17.21410878081,2.848277807236,1574.0190705574794
218,1.156000003219,2.158887624741,17.20370228667,2.872707128525,1587.5192345836058
219,1.159500002861,2.16930937767,17.19328053374,2.897899389267,1601.4410152250962
220,1.163000002503,2.179746389389,17.18284352202,2.922282934189,1614.9158822544002
221,1.166500002146,2.190198659897,17.17239125152,2.945644140244,1627.8257830191278
222,1.170000001788,2.20064330101,17.1619466104,2.969188451767,1640.836871771145
223,1.173500001431,2.21106505394,17.15152485747,2.993678808212,1654.3707651263678
224,1.177000001073,2.22148680687,17.14110310454,3.017818212509,1667.7107148387333
225,1.180500000715,2.231878042221,17.13071186919,3.042629003525,1681.421687172818
226,1.184000000358,2.242261648178,17.12032826324,3.068599462509,1695.7735167619462
227,1.1875,2.252645254135,17.10994465728,3.093639135361,1709.6109740806955
228,1.190999999642,2.263013601303,17.09957631011,3.117931127548,1723.0352471158023
229,1.194499999285,2.273389577866,17.08920033355,3.143321752548,1737.0666480774087
230,1.197999998927,2.283765554428,17.07882435699,3.169154882431,1751.3425866760697
231,1.201499998569,2.29415678978,17.06843312163,3.194652318954,1765.4330139635952
232,1.204999998212,2.304578542709,17.0580113687,3.219768285751,1779.3126329437146
233,1.208499997854,2.315015554428,17.04757435699,3.243907690048,1792.6525826560803
234,1.211999997497,2.325460195541,17.03712971587,3.268398046494,1806.186476011856
235,1.215499997139,2.335881948471,17.02670796294,3.293941259384,1820.3022002962034
236,1.218999996781,2.34631896019,17.01627095122,3.319621801376,1834.4938155715708
237,1.222499996424,2.356763601303,17.00582631011,3.345317602158,1848.6938631797648
238,1.225999996066,2.367223501205,16.99536641021,3.370677709579,1862.7083994762706
239,1.229499995708,2.377683401108,16.98490651031,3.395946264267,1876.672341779684
