,time,travel,position,force,stress
0,0.0,0.0,23.29326232977,-0.01016917917877,-6.687913774745564
1,0.0,0.0,23.2932639838,-0.01027742121369,-6.759100778496983
2,0.0,0.0,23.29326037772,-0.01099719200283,-7.232468873475435
3,0.0,0.0,23.29326957174,-0.01112500485033,-7.316526916741037
4,0.0,0.0,23.2932691247,-0.01122013386339,-7.379089944261502
5,0.0,0.0,23.48142544008,-0.01348845846951,-8.870887769058918
6,0.0,0.0,23.48142178065,-0.01324860937893,-8.713147403927088
7,0.008000001311302,-7.972121238708e-06,23.48142975277,-0.01307797245681,-8.600925463309794
8,0.01099999248981,-4.652887582779e-06,23.48142643354,-0.01291870884597,-8.496183352070746
9,0.01299999654293,1.564621925354e-06,23.48142021603,-0.01284837536514,-8.44992747959573
10,0.01399999856949,-1.966953277588e-06,23.4814237476,-0.01283520273864,-8.441264303475986
11,0.1145000010729,-3.865318285534e-05,23.48146043383,-0.01165085658431,-7.662361225816911
12,0.2149999886751,-3.813128387264e-06,23.48142559378,-0.0108703840524,-7.149071715895738
13,0.3149999976158,2.098212280544e-05,23.48140079853,-0.009820817038417,-6.458808168864355
14,0.4155000001192,-2.154673165933e-05,23.48144332738,-0.01045936439186,-6.878758448611054
15,0.5049999952316,0.01031510531902,23.47110667533,0.0146804517135,9.654820070352935
16,0.515000000596,0.02103631198406,23.46038546867,0.05258328467607,34.58218876117708
17,0.5209999978542,0.03195016086102,23.44947161979,0.05381948500872,35.39519451982623
18,0.5254999995232,0.04214303195477,23.43927874869,0.05141896754503,33.816458072203574
19,0.5294999927282,0.05237405002117,23.42904773063,0.05547637492418,36.48487311571289
20,0.5335000008345,0.06366555392742,23.41775622672,0.06551665812731,43.08801651166606
21,0.5370000004768,0.07441537082195,23.40700640983,0.0806991532445,53.0730129842667
22,0.5405000001192,0.08610360324383,23.39531817741,0.1022750809789,67.26274666494139
23,0.5434999912977,0.09704415500164,23.38437762565,0.1182968094945,77.79967761590882
24,0.5464999973774,0.1089154928923,23.37250628776,0.1233665421605,81.13386362395985
25,0.5489999949932,0.1194135397673,23.36200824088,0.1227328255773,80.71709037298636
26,0.551499992609,0.130323573947,23.3510982067,0.1214739754796,79.88918865538028
27,0.5539999902248,0.1415235251188,23.33989825553,0.1186949685216,78.06153289400643
28,0.5564999878407,0.1528455466032,23.32857623405,0.1141554787755,75.07606912455691
29,0.5590000003576,0.1641523092985,23.31726947135,0.1104132607579,72.61494310956272
30,0.5614999979734,0.1752759665251,23.30614581412,0.106651969254,70.14127312916919
31,0.5639999955893,0.1860639303923,23.29535785026,0.1058399155736,69.60721380151783
32,0.5664999932051,0.1964093893766,23.28501239127,0.1135913804173,74.7050813472943
33,0.5694999992847,0.2082883566618,23.27313342399,0.1329700350761,87.44974531183482
34,0.5724999904633,0.2196637839079,23.26175799674,0.1560108065605,102.60285553659948
35,0.5754999965429,0.2307111471891,23.25071063346,0.1798755526543,118.29786506743118
36,0.5784999877214,0.241552516818,23.23986926383,0.2021991610527,132.97932219244402
37,0.5814999938011,0.2522870600224,23.22913472063,0.2228443026543,146.55691036073645
38,0.5844999998808,0.2629911005497,23.2184306801,0.2407428622246,158.32816750882736
39,0.5874999910593,0.273695141077,23.20772663957,0.2524310946465,166.01510951689485
40,0.590499997139,0.2843534052372,23.19706837541,0.257752597332,169.51487586844084
41,0.5934999883175,0.2947904169559,23.18663136369,0.2619258761406,172.25949550186786
42,0.5964999943972,0.3048612177372,23.17656056291,0.2731487154961,179.64036475374425
43,0.5999999940395,0.3161679804325,23.16525380022,0.2929393649101,192.65598327125178
44,0.6034999936819,0.3271085321903,23.15431324846,0.3167278170586,208.30081694042033
45,0.6069999933243,0.3378430902958,23.14357869035,0.3409740328789,224.2467057795677
46,0.6104999929667,0.348516613245,23.1329051674,0.3654796481133,240.36319254842235
47,0.613999992609,0.3593045771122,23.12211720354,0.3871166110039,254.5930669184012
48,0.6174999922514,0.3702909052372,23.11113087541,0.4048931002617,266.28404268781793
49,0.6210000067949,0.3814740777016,23.09994770295,0.4197908341885,276.08176167673554
50,0.6244999915361,0.3928037285805,23.08861805207,0.4339738786221,285.4094543614439
51,0.6279999911785,0.4042249321938,23.07719684846,0.4455324113369,293.01109740462493
52,0.6314999908209,0.415630877018,23.06579090363,0.4550004899502,299.237921838052
53,0.6349999904633,0.4269147515297,23.05450702912,0.4647813737392,305.6704673042782
54,0.6384999901056,0.4379392266273,23.04348255402,0.4778047502041,314.2354868916149
55,0.641999989748,0.4486661553383,23.03275562531,0.4951997697353,325.6755833526502
56,0.6454999893904,0.4591260552406,23.02229572541,0.514822602272,338.58083457446963
57,0.6489999890327,0.4694104790688,23.01201130158,0.5355440378189,352.20859860442516
58,0.6524999886751,0.479595720768,23.00182605988,0.5552583932877,365.1740412603353
59,0.6559999883175,0.4897580742836,22.99166370637,0.5749574899673,378.1294487438208
60,0.6594999879599,0.4999738335609,22.98144794709,0.5937105417252,390.46267554269656
61,0.6630000025034,0.5102506279945,22.97117115266,0.6109071969986,401.77231476339455
62,0.6665000021458,0.5205960869789,22.96082569367,0.6261965036392,411.827557442317
63,0.6700000017881,0.5310102105141,22.95041157014,0.641760468483,422.0634332233056
64,0.6735000014305,0.5414777398109,22.93994404084,0.6569887399673,432.0785352128581
65,0.6770000010729,0.5519681572914,22.92945362336,0.672781586647,442.4649385788362
66,0.6805000007153,0.5624585747719,22.91896320588,0.6893068552017,453.33303021685913
67,0.6840000003576,0.5729337334633,22.90848804719,0.7047792673111,463.5086949638257
68,0.6875,0.5833783745766,22.89804340607,0.7202059030533,473.6542541937813
69,0.6909999996424,0.5937696099281,22.88765217072,0.7354799509048,483.6994617003448
70,0.6944999992847,0.604122698307,22.87729908234,0.7527529001236,495.05927678277163
71,0.6979999989271,0.6144376397133,22.86698414094,0.7700563669205,506.4391622098507
72,0.7014999985695,0.6247373223305,22.85668445832,0.7865968942642,517.3172890201669
73,0.7049999982119,0.6350217461586,22.84640003449,0.8030306100845,528.1251696241678
74,0.7084999978542,0.6453061699867,22.83611561066,0.8193880319595,538.8828743665057
75,0.7119999974966,0.6555982232094,22.82582355744,0.8359133005142,549.7509660045286
76,0.715499997139,0.6659131646156,22.81550861603,0.8530489206314,561.0204645359224
77,0.7189999967813,0.6762509942055,22.80517078644,0.8696962594986,571.9688375526196
78,0.7224999964237,0.6865659356117,22.79485584504,0.8859468698502,582.6562960886422
79,0.7259999960661,0.6968656182289,22.78455616242,0.9031893014908,593.9960408263512
80,0.7294999957085,0.707150042057,22.77427173859,0.9207521677017,605.5465241830717
81,0.7329999953508,0.7174344658852,22.76398731476,0.9385133981705,617.2274647801952
82,0.7364999949932,0.7277494072914,22.75367237336,0.9565645456314,629.0990736516125
83,0.7399999946356,0.7381024956703,22.74331928498,0.974051117897,640.5993811466698
84,0.743499994278,0.7484937310219,22.73292804963,0.9912477731705,651.9090203674335
85,0.7469999939203,0.758907854557,22.72251392609,1.007483124733,662.5864437310972
86,0.7504999935627,0.7693524956703,22.71206928498,1.024862885475,674.0165050197078
87,0.7539999932051,0.7798352837563,22.70158649689,1.04219686985,685.4164607914389
88,0.7574999928474,0.7903333306313,22.69108845002,1.058951020241,696.4350800147143
89,0.7609999924898,0.8008390069008,22.68058277375,1.076101899147,707.7146137182698
90,0.7644999921322,0.8113217949867,22.67009998566,1.092932343483,718.7834088030112
91,0.7679999917746,0.8218198418617,22.65960193879,1.110357880592,730.2435756085013
92,0.7714999914169,0.8323255181313,22.64909626252,1.129141449928,742.5968727520291
93,0.7749999910593,0.8428693413734,22.63855243928,1.147375702858,754.5889036916877
94,0.7784999907017,0.8534589409828,22.62796283967,1.164847016335,766.079176014715
95,0.781999990344,0.8640637993813,22.61735798127,1.1823335886,777.5794835093777
96,0.7854999899864,0.8746686577797,22.60675312287,1.199835419655,789.0898261769914
97,0.7889999896288,0.8852811455727,22.59614063508,1.217703461647,800.8410129802986
98,0.7924999892712,0.8958783745766,22.58554340607,1.235479950905,812.531988749847
99,0.7959999889135,0.9064756035805,22.57494617707,1.254202485085,824.8451452042021
100,0.7994999885559,0.9170652031898,22.56435657746,1.271994233131,836.5461561453858
101,0.8029999881983,0.9276395440102,22.55378223664,1.289541840553,848.0866043298789
102,0.8064999878407,0.9382138848305,22.54320789582,1.308249115944,860.389725611941
103,0.8100000023842,0.9487805962563,22.53264118439,1.326605439186,872.4620379299449
104,0.8135000020266,0.9593396782875,22.52208210236,1.344580292702,884.2834709399621
105,0.8170000016689,0.9699063897133,22.51151539094,1.362555146217,896.1049039493215
106,0.8205000013113,0.98045784235,22.5009639383,1.380179047585,907.695527995938
107,0.8240000009537,0.9909940361977,22.49042774445,1.397406220436,919.0252375609593
108,0.827500000596,1.001492023468,22.47992975718,1.415121674538,930.6760726413349
109,0.8310000002384,1.011959552765,22.46946222788,1.433325409889,942.6480332357495
110,0.8344999998808,1.022419452667,22.45900232798,1.452582001686,955.312420721681
111,0.8379999995232,1.032871723175,22.44855005747,1.471380829811,967.675753037502
112,0.8414999991655,1.043323993683,22.43809778697,1.489843964577,979.8183115622157
113,0.8449999988079,1.053776264191,22.42764551646,1.507757782936,991.5996038824024
114,0.8484999984503,1.064236164093,22.41718561656,1.527166962624,1004.3643430919232
115,0.8519999980927,1.074696063995,22.40672571665,1.545920014381,1016.697569890207
116,0.855499997735,1.085148334503,22.39627344615,1.563833832741,1028.4788622110514
117,0.8589999973774,1.095592975616,22.38582880503,1.582342743874,1040.6515262526448
118,0.8624999970198,1.106052875519,22.37536890513,1.601385712624,1053.175421325814
119,0.8659999966621,1.116512775421,22.36490900523,1.620398163795,1065.6792460537395
120,0.8694999963045,1.126980304718,22.35444147593,1.638846039772,1077.81176940616
121,0.8729999959469,1.137457966805,22.34396381385,1.658519625664,1090.7503993361386
122,0.8764999955893,1.147963643074,22.33345813758,1.677562594414,1103.274294409308
123,0.8799999952316,1.158499836922,22.32292194373,1.696636080742,1115.8182598270637
124,0.883499994874,1.169066548347,22.3123552323,1.714778780937,1127.7500797323055
125,0.8869999945164,1.179633259773,22.30178852088,1.732784152031,1139.591583086909
126,0.8904999941587,1.19018471241,22.29123706824,1.75069797039,1151.3728754070958
127,0.8939999938011,1.200751423836,22.28067035681,1.769771456718,1163.9168408248515
128,0.8974999934435,1.211310505867,22.27011127478,1.788524508476,1176.250067623793
129,0.9009999930859,1.221884846687,22.25953693396,1.80733859539,1188.6234351119072
130,0.9044999927282,1.232466816902,22.24895496375,1.826732516289,1201.3781391491348
131,0.9079999923706,1.243064045906,22.23835773474,1.845821261406,1213.9321397391836
132,0.911499992013,1.253676533699,22.22774524695,1.864879488945,1226.466069984646
133,0.9149999916553,1.264296650887,22.21712512976,1.883830904961,1238.9297540240566
134,0.9184999912977,1.274924397469,22.20649738318,1.903392672539,1251.794844956509
135,0.9219999909401,1.285559773445,22.1958620072,1.921687960625,1263.82701658534
136,0.9254999905825,1.296202778816,22.18521900183,1.939815402031,1275.7488013182888
137,0.9289999902248,1.306822896004,22.17459888465,1.958736300468,1288.1924150124553
138,0.9324999898672,1.317412495613,22.16400928504,1.977931857109,1300.816661809214
139,0.9359999895096,1.327971577644,22.15345020301,1.997569918633,1313.7319286037898
140,0.939499989152,1.33853828907,22.14288349158,2.016719579697,1326.325991483418
141,0.9429999887943,1.349059224129,22.13236255652,2.036601781845,1339.4018210346844
142,0.9464999884367,1.359587788582,22.12183399207,2.055858373642,1352.066208520616
143,0.9499999880791,1.37010872364,22.11131305701,2.0755879879,1365.0416863489509
144,0.9534999877214,1.380606770515,22.10081501013,2.094493627548,1377.475264870824
145,0.957000002265,1.391089558601,22.09033222205,2.113918066025,1390.2500392526379
146,0.9605000019073,1.401564717293,22.07985706336,2.133434057236,1403.085024668211
147,0.9640000015497,1.412039875984,22.06938190467,2.153194189072,1416.080572841132
148,0.9675000011921,1.422515034676,22.05890674597,2.173808813095,1429.6380906644433
149,0.9710000008345,1.433013081551,22.0484086991,2.193675756454,1442.703885043417
150,0.9745000004768,1.443511128426,22.03791065222,2.213954687119,1456.0406290762787
151,0.9780000001192,1.454054951668,22.02736682898,2.233684301376,1469.016106903956
152,0.9814999997616,1.464621663094,22.01680011756,2.253368139267,1481.9614792154114
153,0.984999999404,1.475226521492,22.00619525916,2.272426366806,1494.4954094608738
154,0.9884999990463,1.48583137989,21.99559040076,2.29302573204,1508.042892111892
155,0.9919999986887,1.496474385262,21.98494739539,2.312984228134,1521.168897525282
156,0.9954999983311,1.507102131844,21.97431964881,2.332469701767,1533.9838125962688
157,0.9989999979734,1.517745137215,21.96367664344,2.351833105087,1546.7184462882522
158,1.002499997616,1.528403401375,21.95301837927,2.372600317001,1560.376315835153
159,1.005999997258,1.53906929493,21.94235248572,2.392909765244,1573.7331302126013
160,1.009499996901,1.549750447273,21.93167133338,2.412441015244,1586.5781508004673
161,1.012999996543,1.560431599617,21.92099018103,2.432948827744,1600.0654224177267
162,1.016499996185,1.571097493172,21.91032428748,2.452647924423,1613.0208299008175
163,1.019999995828,1.581725239754,21.8996965409,2.472530126572,1626.0966594527415
164,1.02349999547,1.592322468758,21.88909931189,2.493037939072,1639.583931070001
165,1.026999995112,1.602904438972,21.87851734168,2.513667821884,1653.1514840656055
166,1.030499994755,1.613448262215,21.86797351844,2.533656835556,1666.297559823582
167,1.033999994397,1.623969197273,21.85745258338,2.553066015244,1679.0622990331028
168,1.03749999404,1.634467244148,21.8469545365,2.573329687119,1692.3890078930137
169,1.040999993682,1.644950032234,21.83647174842,2.593532323837,1705.6755760630945
170,1.044499993324,1.65543282032,21.82598896033,2.614055395126,1719.1728828526468
171,1.047999992967,1.665915608406,21.81550617224,2.63450217247,1732.6200137807336
172,1.051499992609,1.676390767097,21.80503101355,2.654094457626,1745.5051750577722
173,1.054999992251,1.686865925789,21.79455585486,2.674632787704,1759.0125170196181
174,1.058499991894,1.697333455086,21.78408832556,2.695766210556,1772.9112307028702
175,1.061999991536,1.707816243172,21.77360553748,2.716350317001,1786.4486781815954
176,1.065499991179,1.718306660652,21.76311512,2.736217260361,1799.5144725612265
177,1.068999990821,1.728819966316,21.75260181433,2.756129980087,1812.6103724570792
178,1.072499990463,1.739348530769,21.74207324988,2.775707006454,1825.485498561825
179,1.075999990106,1.749877095222,21.73154468543,2.796214818954,1838.9727701790841
180,1.079499989748,1.760405659676,21.72101612097,2.816646337509,1852.4098659348774
181,1.08299998939,1.770941853523,21.71047992713,2.837535619736,1866.1480168607816
182,1.086499989033,1.781485676765,21.69993610388,2.858211278915,1879.7456753732654
183,1.089999988675,1.792052388191,21.68936939246,2.878352880478,1892.9921028548313
184,1.093499988317,1.802611470222,21.67881031043,2.898158788681,1906.017756544632
185,1.09699998796,1.813178181648,21.668243599,2.919200658798,1919.8562591934676
186,1.100500002503,1.823760151863,21.65766162879,2.940318822861,1933.7449377044265
187,1.104000002146,1.834357380867,21.64706439978,2.96116232872,1947.4529831127932
188,1.107500001788,1.844977498055,21.6364442826,2.98101401329,1960.5087423194732
189,1.111000001431,1.855605244637,21.62581653601,3.001231908798,1973.805345662505
190,1.114500001073,1.866232991219,21.61518878943,3.021373510361,1987.0517731440707
191,1.118000000715,1.876853108406,21.60456867224,3.042461156845,2000.9203813097854
192,1.121500000358,1.887465596199,21.59395618445,3.064525365829,2015.4312405048938
193,1.125,1.898074269295,21.58334751135,3.085709571838,2029.3633524958418
194,1.128499999642,1.908679127693,21.57274265296,3.106614112854,2043.1115385940386
195,1.131999999285,1.919283986092,21.56213779456,3.128357887268,2057.4116591703328
196,1.135499998927,1.92988884449,21.55153293616,3.149903297424,2071.5813225061584
197,1.138999998569,1.940478444099,21.54094333655,3.171387672424,2085.7108451528106
198,1.142499998212,1.951075673103,21.53034610755,3.193146705627,2100.021000901398
199,1.145999997854,1.961672902107,21.51974887854,3.213486671448,2113.3978856234326
200,1.149499997497,1.972270131111,21.50915164954,3.233933448792,2126.845016551519
201,1.152999997139,1.982821583748,21.4986001969,3.254334449768,2140.2620419620685
202,1.156499996781,1.993342518806,21.48807926184,3.275040626526,2153.879770819797
203,1.159999996424,2.003817558289,21.47760422236,3.295716285706,2167.4774293329388
204,1.163499996066,2.014262199402,21.46715958125,3.317795753479,2181.9983237003403
205,1.166999995708,2.024683952332,21.45673782832,3.339936256409,2196.5593587575718
206,1.170499995351,2.035098075867,21.44632370478,3.36026096344,2209.9262083066556
207,1.173999994993,2.045489311218,21.43593246943,3.38142490387,2223.8449923344942
208,1.177499994636,2.055872917175,21.42554886347,3.402512550354,2237.713600500209
209,1.180999994278,2.066241264343,21.41518051631,3.423676490784,2251.6323845280476
210,1.18449999392,2.076609611511,21.40481216914,3.444458961487,2265.3002892472414
211,1.187999993563,2.08696269989,21.39445908076,3.464890480042,2278.737385003035
212,1.191499993205,2.09730052948,21.38412125117,3.485871315002,2292.5357469620403
213,1.194999992847,2.107615470886,21.37380630976,3.507035255432,2306.454530989879
214,1.19849999249,2.117915153503,21.36350662715,3.52855014801,2320.6041239811175
215,1.201999992132,2.128191947937,21.35322983271,3.549836158752,2334.6031893873014
216,1.205499991775,2.138476371765,21.34294540888,3.572190284729,2349.3047168572953
217,1.208999991417,2.148760795593,21.33266098506,3.594788551331,2364.166807084637
218,1.212499991059,2.159045219421,21.32237656123,3.616135597229,2378.206013179994
219,1.215999990702,2.169337272644,21.31208450801,3.637238502502,2392.0846565180022
220,1.219499990344,2.179636955261,21.30178482539,3.659440040588,2406.6858322644066
221,1.222999989986,2.189951896667,21.29146988398,3.680802345276,2420.735073532714
222,1.226499989629,2.200289726257,21.28113205439,3.70254611969,2435.035194109008
223,1.229999989271,2.210627555847,21.2707942248,3.72435092926,2449.3754553744748
224,1.233499988914,2.220973014832,21.26044876582,3.746125221252,2463.6956462953553
225,1.236999988556,2.231348991394,21.25007278926,3.76912021637,2478.8186510036353
226,1.240499988198,2.241740226746,21.2396815539,3.791123390198,2493.2893695095704
227,1.243999987841,2.252177238464,21.22924454219,3.812470436096,2507.328575604927
228,1.247500002384,2.262629508972,21.21879227168,3.833603858948,2521.2272892881792
229,1.251000002027,2.273119926453,21.2083018542,3.855027198792,2535.316671245659
230,1.254500001669,2.283595085144,21.19782669551,3.876435279846,2549.3960180301883
231,1.258000001311,2.294085502625,21.18733627803,3.89802646637,2563.5957868835508
232,1.261500000954,2.304560661316,21.17686111933,3.920304298401,2578.247138491421
233,1.265000000596,2.315035820007,21.16638596064,3.942399024963,2592.7780680311157
234,1.268500000238,2.32549571991,21.15592606074,3.964814186096,2607.519736190282
235,1.271999999881,2.335932731628,21.14548904902,3.987641334534,2622.5323540026793
236,1.275499999523,2.346354484558,21.13506729609,4.009537696838,2636.932826301905
237,1.278999999166,2.356753349304,21.12466843135,4.032013893127,2651.7146351502442
238,1.282499998808,2.367159843445,21.1142619372,4.055039405823,2666.8577102031104
239,1.28599999845,2.377535820007,21.10388596064,4.077256202698,2681.468921121808
240,1.289499998093,2.387896537781,21.09352524287,4.100205421448,2696.5618203125505
