,time,travel,position,force,stress
0,0.0,0.0,21.67582806043,-0.001777654048055,-1.1691009456829378
1,0.0,0.0,21.67582691304,-0.001735513564199,-1.1413866220880344
2,0.0,0.0,21.67582718127,-0.001329918857664,-0.8746411574725306
3,0.0,0.0,21.67582069926,-0.001615961547941,-1.0627614388481033
4,0.0,0.0,21.67581654184,-0.001670440193266,-1.0985901400729956
5,0.0,0.0,21.90671548899,-0.001600723946467,-1.05274020085037
6,0.0,0.0,21.90671676982,-0.001694519305602,-1.1144261307901007
7,0.008000001311302,1.185297151096e-06,21.90671558452,-0.002073545241728,-1.3636982435772325
8,0.01099999248981,-2.390981535427e-06,21.9067191608,-0.001962971175089,-1.2909775440591766
9,0.01299999654293,6.041518645361e-07,21.90671616567,-0.001914125168696,-1.2588532326222168
10,0.01399999856949,1.222550054081e-06,21.90671554727,-0.001945179188624,-1.2792763763181485
11,0.1145000010729,7.32496209821e-06,21.90670944486,-0.001262409961782,-0.8302429158101489
12,0.2150000035763,1.339602113148e-05,21.9067033738,-0.002844847040251,-1.8709564826293177
13,0.3154999911785,8.785035788605e-06,21.90670798478,-0.001169130206108,-0.7688960802484902
14,0.4155000001192,1.981983132282e-06,21.90671478784,-0.002750245155767,-1.8087401291523049
15,0.5160000026226,6.791276518925e-06,21.90670997854,0.0007571910973638,0.49797812401084873
16,0.616500005126,-1.47221626321e-05,21.90673149198,-0.002945226151496,-1.9369723162566441
17,0.7169999927282,4.669204281527e-05,21.90667007778,-0.0005195852718316,-0.34171307590803834
18,0.8170000016689,1.72040417965e-05,21.90669956578,-0.001396898645908,-0.9186914235315431
19,0.9175000041723,2.525182389945e-05,21.906691518,0.0004512896703091,0.2967974454380373
20,1.017999991775,0.007222684565932,21.89949408525,0.02938302606344,19.324189425596987
21,1.027500003576,0.01779511757195,21.88892165225,0.08230050653219,54.126167080846535
22,1.032499998808,0.02794221229851,21.87877455752,0.08764477819204,57.64090779114016
23,1.036499992013,0.03832582011819,21.8683909497,0.09000750631094,59.19479150727714
24,1.039999991655,0.04894593730569,21.85777083251,0.1029469594359,67.70461764671208
25,1.042999997735,0.05926087871194,21.84745589111,0.12078448385,79.43573410549878
26,1.046000003815,0.07083466649055,21.83588210333,0.1426961123943,93.84624647747735
27,1.048500001431,0.08157685399055,21.82513991583,0.1583211123943,104.12226294777018
28,1.050999999046,0.09332612156868,21.81339064825,0.1684682071209,110.79565255008463
29,1.053000003099,0.103412181139,21.80330458868,0.1738164126873,114.31298045324228
30,1.054999992251,0.1140780746937,21.79263869513,0.1775586307049,116.77410646823645
31,1.056999996305,0.1252780258656,21.78143874395,0.1801182925701,118.4575066272877
32,1.059000000358,0.1369815170765,21.76973525274,0.1815192401409,119.37886088722739
33,1.061000004411,0.1490969955921,21.75761977423,0.1811582744122,119.14146634173412
34,1.062999993563,0.1615634262562,21.74515334356,0.1798650920391,118.29098548636976
35,1.064999997616,0.1742739975452,21.73244277227,0.1808771789074,118.9565996513629
36,1.067000001669,0.1871371567249,21.71957961309,0.1843294799328,121.22705739199773
37,1.068999990821,0.2001376450062,21.70657912481,0.1889681518078,124.27774978161591
38,1.070999994874,0.2131991684437,21.69351760138,0.1952318847179,128.39718802479692
39,1.072999998927,0.2262912094593,21.68042556036,0.2015261352062,132.53669661269575
40,1.07500000298,0.2393527328968,21.66736403692,0.2065691649914,135.85332106920086
41,1.076999992132,0.2523074448109,21.65440932501,0.2135805785656,140.46448275678577
42,1.078999996185,0.2651706039906,21.64154616583,0.2254519164562,148.27184683283164
43,1.081000000238,0.2779099047184,21.6288068651,0.2419562935829,159.1261989087288
44,1.083000004292,0.2905441820621,21.61617258776,0.260541498661,171.34903881185366
45,1.084999993443,0.3031479418278,21.60356882799,0.2790656685829,183.5317380256743
46,1.086999997497,0.3157059252262,21.59101084459,0.2948890328407,193.93821173630442
47,1.08900000155,0.3282181322575,21.57849863756,0.3068366646767,201.7957516740792
48,1.090999990702,0.3406387865543,21.56607798326,0.316693842411,208.27847300196854
49,1.092999994755,0.3529678881168,21.5537488817,0.3249030709267,213.6773957178553
50,1.094999998808,0.3651291429996,21.54158762682,0.3311439156532,217.78178120253077
51,1.097000002861,0.3770615160465,21.52965525377,0.3381324410439,222.37789013167588
52,1.098999992013,0.3887192308903,21.51799753893,0.348905146122,229.46272179965433
53,1.100999996066,0.4001022875309,21.50661448229,0.3638892769814,239.31726103192423
54,1.103000000119,0.4112106859684,21.49550608385,0.3817115426064,251.038342318352
55,1.105000004172,0.4220749437809,21.48464182604,0.4016700387001,264.1643477315447
56,1.106999993324,0.4327255785465,21.47399119127,0.423368036747,278.4343627908936
57,1.108999997377,0.4432083666325,21.46350840319,0.4460425972939,293.3466288796358
58,1.111000001431,0.4535690844059,21.45314768541,0.4685645699501,308.1585432449859
59,1.112999990582,0.4638840258121,21.44283274401,0.4901099801064,322.3282065810085
60,1.114999994636,0.4741531908512,21.43256357897,0.5099769234657,335.39400096017914
61,1.116999998689,0.4844528734684,21.42226389635,0.5277076363564,347.0548712126506
62,1.119000002742,0.4947678148746,21.41194895494,0.5424934029579,356.7789532045175
63,1.120999991894,0.5050979852676,21.40161878455,0.5549445748329,364.96765382928214
64,1.122999995947,0.515428185463,21.39128858436,0.567166864872,373.0058268690573
65,1.125,0.5257126092911,21.38100416053,0.5795112252235,381.12428128744085
66,1.127000004053,0.535951256752,21.37076551307,0.5916724801064,389.1223136379119
67,1.128999993205,0.5461441278458,21.36057264197,0.6044898629189,397.5518583986989
68,1.130999997258,0.5562607049942,21.35045606482,0.6188026070595,406.96485004822813
69,1.133000001311,0.5663315057755,21.34038526404,0.6336799263954,416.74914307411706
70,1.134999990463,0.5763412714005,21.33037549842,0.6479621529579,426.1420643789941
71,1.13750000298,0.5887771844864,21.31793958533,0.666303217411,438.20434152477054
72,1.140000000596,0.6011520624161,21.3055647074,0.6857276558876,450.9791159063214
73,1.142499998212,0.6134659051895,21.29325086463,0.7043128609657,463.20195580944625
74,1.144999995828,0.6257339715958,21.28098279822,0.7233405709267,475.7158157103225
75,1.147499993443,0.6379562616348,21.26876050818,0.7430244088173,488.66118802151476
76,1.149999991059,0.6501785516739,21.25653821815,0.7625556588173,501.5062086093808
77,1.152500003576,0.6623855829239,21.2443311869,0.7819038033485,514.2308071292027
78,1.155000001192,0.674607872963,21.23210889686,0.8007331490517,526.6142097897416
79,1.157499998808,0.686830163002,21.21988660682,0.8185096383095,538.3051855591583
80,1.159999996424,0.6990524530411,21.20766431678,0.8368049263954,550.3373571879239
81,1.16249999404,0.7112900018692,21.19542676795,0.8555732369423,562.6806191590928
82,1.164999991655,0.7235122919083,21.18320447791,0.8745856881142,575.1844438876101
83,1.167500004172,0.7357498407364,21.17096692908,0.8937965035439,587.8187258564647
84,1.170000001788,0.7480026483536,21.15871412147,0.9134803414345,600.7640981676569
85,1.172499999404,0.7602554559708,21.14646131385,0.9329963326454,613.5990835831641
86,1.17499999702,0.772523522377,21.13419324744,0.9526191353798,626.5043152050522
87,1.177499994636,0.7848068475723,21.12190992225,0.972455561161,639.5500392395708
88,1.179999992251,0.7971054315567,21.10961133826,0.992215692997,652.545587412492
89,1.182500004768,0.8094192743301,21.09729749549,1.010816216469,664.7785016879698
90,1.185000002384,0.8217331171036,21.08498365272,1.030301690102,677.5934167589562
91,1.1875,0.8340622186661,21.07265455115,1.050138115883,690.6391407933434
92,1.189999997616,0.8463913202286,21.06032544959,1.069852471352,703.6045834493849
93,1.192499995232,0.8587356805801,21.04798108924,1.090421319008,717.1319957558171
94,1.194999992847,0.8710647821426,21.03565198768,1.111173272133,730.7798301304247
95,1.197499990463,0.8833938837051,21.02332288611,1.131101250648,743.8857651985708
96,1.20000000298,0.8957229852676,21.01099378455,1.150861382484,756.8813133714918
97,1.202500000596,0.9080520868301,20.99866468299,1.17127764225,770.3083739549922
98,1.204999998212,0.9203811883926,20.98633558143,1.192426323891,784.2171228105376
99,1.207499995828,0.9327255487442,20.97399122107,1.214398980141,798.6677709718869
100,1.209999993443,0.9451004266739,20.96161634315,1.235974907875,812.8575046522984
101,1.212499991059,0.9574905633926,20.94922620643,1.257611870766,827.0873790225404
102,1.215000003576,0.9699417352676,20.93677503455,1.278607964516,840.8957761544964
103,1.217500001192,0.9824081659317,20.92430860389,1.299146294594,854.4031181163421
104,1.219500005245,0.9924179315567,20.91429883826,1.315106987953,864.8999083777422
105,1.222000002861,1.004914879799,20.90180189002,1.335401177406,878.2466875822396
106,1.223999992013,1.014939904213,20.89177686561,1.351544976234,888.8638999118153
107,1.225999996066,1.024949669838,20.88176709998,1.367536187172,899.3807605184595
108,1.228000000119,1.034959435463,20.87175733436,1.383985161781,910.1986762945563
109,1.230499997735,1.047441124916,20.8592756449,1.405774712563,924.5289023883877
110,1.232999995351,1.059922814369,20.84679395545,1.428235650063,939.3006760644337
111,1.235499992967,1.072404503822,20.834312266,1.449781060219,953.4703394002589
112,1.237999990582,1.084870934486,20.82184583533,1.471173882484,967.5396510124949
113,1.240500003099,1.097322106361,20.80939466346,1.492414116859,981.5086109017992
114,1.243000000715,1.109758019447,20.79695875037,1.513013482094,995.0560935534752
115,1.245499998331,1.122178673744,20.78453809607,1.533734917641,1008.6838575834965
116,1.247999995947,1.134584069252,20.77213270057,1.555982232094,1023.3151388467805
117,1.250499993563,1.146974205971,20.75974256385,1.578473687172,1038.1069828674129
118,1.252999991179,1.15936434269,20.74735242713,1.600995659828,1052.9188972326313
119,1.255500003695,1.171769738197,20.73494703162,1.622876763344,1067.3093343602218
120,1.258000001311,1.184144616127,20.72257215369,1.644086480141,1081.2582239049398
121,1.260499998927,1.196519494057,20.71019727576,1.665814995766,1095.5483093089406
122,1.262999996543,1.208879113197,20.69783765662,1.688092827797,1110.199660916811
123,1.265499994159,1.221223473549,20.68549329627,1.710248589516,1124.770731146336
124,1.267999991775,1.23358309269,20.67313367713,1.732740044594,1139.5625751669681
125,1.270500004292,1.245927453041,20.66078931678,1.755597710609,1154.5952633232941
126,1.273000001907,1.258271813393,20.64844495643,1.777661919594,1169.1061225190601
127,1.275499999523,1.270616173744,20.63610059607,1.800763726234,1184.2993734327342
128,1.277999997139,1.282991051674,20.62372571815,1.824048638344,1199.6130464152418
129,1.280499994755,1.295381188393,20.61133558143,1.845929741859,1214.0034835421745
130,1.282999992371,1.30780184269,20.59891492713,1.868024468422,1228.5344130825267
131,1.285500004888,1.320237755775,20.58647901404,1.891065239906,1243.6875233070284
132,1.288000002503,1.33268892765,20.57402784217,1.914319634438,1258.9811259449496
133,1.290500000119,1.345155358315,20.5615614115,1.937116265297,1273.973673412103
134,1.292999997735,1.357652306557,20.54906446326,1.959790825844,1288.8859395009108
135,1.295000001788,1.367662072182,20.53905469764,1.977887749672,1300.7876538892733
136,1.29699999094,1.377687096596,20.52902967322,1.996015191078,1312.709438622222
137,1.298999994993,1.38771212101,20.51900464881,2.013776302338,1324.3903008198836
138,1.300999999046,1.397737145424,20.5089796244,2.031903743744,1336.3120855528323
139,1.303000003099,1.407762169838,20.49895459998,2.050061702728,1348.2539406303677
140,1.305500000715,1.42025911808,20.48645765174,2.073407649994,1363.6077543020476
141,1.307500004768,1.430268883705,20.47644788611,2.092755794525,1376.3323528217381
142,1.310000002384,1.442765831947,20.46395093787,2.116651058197,1392.0474326972878
143,1.3125,1.4552475214,20.45146924842,2.140027523041,1407.4213167135545
144,1.314999997616,1.467729210854,20.43898755897,2.163678646088,1422.9758338317556
145,1.317499995232,1.480180382729,20.42653638709,2.187940120697,1438.9317578429989
146,1.319999992847,1.492646813393,20.41406995643,2.212781429291,1455.2690184033554
147,1.322499990463,1.505113244057,20.40160352576,2.237775325775,1471.7066306866434
148,1.32500000298,1.51759493351,20.38912183631,2.261853694916,1487.5421326303688
149,1.327500000596,1.530091881752,20.37662488807,2.285138607025,1502.8558056122185
150,1.329500004649,1.540101647377,20.36661512244,2.304456233978,1515.5603337873226
151,1.331499993801,1.55012178421,20.35659498561,2.324140787125,1528.506176497654
152,1.333499997854,1.560146808624,20.34656996119,2.343488931656,1541.2307750173445
153,1.335500001907,1.570187091827,20.33652967799,2.362776041031,1553.9152328478622
154,1.337499991059,1.580227375031,20.32648939479,2.382063150406,1566.5996906783798
155,1.339499995112,1.590282917023,20.3164338528,2.401930093765,1579.665485057353
156,1.341499999166,1.600338459015,20.3063783108,2.421980142593,1592.8517015045022
157,1.343500003219,1.610409259796,20.29630751002,2.442030191422,1606.0379179523088
158,1.345499992371,1.620480060577,20.28623670924,2.461988687515,1619.163923365041
159,1.347499996424,1.630566120148,20.27615064967,2.48176407814,1632.1695067102555
160,1.349500000477,1.640652179718,20.2660645901,2.501417398453,1645.0948086771245
161,1.35150000453,1.650753498077,20.25596327174,2.520704507828,1657.7792665076422
162,1.353499993682,1.660839557648,20.24587721217,2.540235757828,1670.6242870955082
163,1.355499997735,1.670956134796,20.23576063502,2.559644937515,1683.3890263043713
164,1.357500001788,1.681057453156,20.22565931666,2.579145669937,1696.213976547651
165,1.35949999094,1.691158771515,20.2155579983,2.599012613297,1709.279770927282
166,1.361499994993,1.701260089874,20.20545667994,2.619520425797,1722.7670425445415
167,1.363499999046,1.711361408234,20.19535536159,2.63996720314,1736.2141734719703
168,1.365500003099,1.721462726593,20.18525404323,2.660230875015,1749.5408823318814
169,1.367499992251,1.731564044952,20.17515272487,2.679945230484,1762.506324987923
170,1.369499996305,1.741665363312,20.16505140651,2.698957681656,1775.0101497165062
171,1.371500000358,1.751736164093,20.15498060573,2.718153238297,1787.6343965132648
172,1.373500004411,1.761806964874,20.14490980494,2.737806558609,1800.5596984794763
173,1.375499993563,1.771862506866,20.13485426295,2.758222818375,1813.9867590629767
174,1.377499997616,1.78190279007,20.12481397975,2.779188394547,1827.7750858503462
175,1.379500001669,1.791912555695,20.11480421412,2.800489664078,1841.7841864288232
176,1.381499990821,1.80192232132,20.1047944485,2.821851968765,1855.8334276964729
177,1.384000003338,1.814404010773,20.09231275905,2.848432779312,1873.314697902854
178,1.386500000954,1.826885700226,20.07983106959,2.875135660172,1890.8762494882383
179,1.388999998569,1.839382648468,20.06733412135,2.901594400406,1908.2772383156164
180,1.391000002623,1.849392414093,20.05732435573,2.922468423843,1922.0053540685694
181,1.392999991775,1.859402179718,20.0473145901,2.94367814064,1935.9542436132872
182,1.394999995828,1.869427204132,20.03728956569,2.965193033218,1950.1038366045264
183,1.396999999881,1.879467487335,20.02724928248,2.986707925797,1964.2534295964228
184,1.399000003934,1.889538288116,20.0171784817,3.008222818375,1978.403022587662
185,1.400999993086,1.899624347687,20.00709242213,3.029859781265,1992.6328969572462
186,1.402999997139,1.909756183624,19.99696058619,3.050672769547,2006.3208720216842
187,1.405000001192,1.919903278351,19.98681349147,3.071546792984,2020.0489877746372
188,1.407000005245,1.930065631866,19.97665113795,3.092573404312,2033.8774552511795
189,1.408999994397,1.940243244171,19.96647352565,3.113233804703,2047.4650785920282
190,1.41099999845,1.950436115265,19.95628065455,3.133772134781,2060.972420553874
191,1.413000002503,1.960628986359,19.94608778346,3.154798746109,2074.800888030416
192,1.414999991655,1.970837116241,19.93587965358,3.176313638687,2088.9504810216554
193,1.416999995708,1.981029987335,19.92568678248,3.197950601578,2103.180355391897
194,1.418999999762,1.991222858429,19.91549391139,3.219740152359,2117.510581485071
195,1.421000003815,2.001415729523,19.9053010403,3.242201089859,2132.282355161117
196,1.422999992967,2.011608600616,19.8951081692,3.264906167984,2147.214691594511
197,1.42499999702,2.021816730499,19.88490003932,3.287519693375,2162.0868169941464
198,1.427000001073,2.032009601593,19.87470716823,3.309675455093,2176.6578872230134
199,1.429000005126,2.042232990265,19.86448377955,3.331342935562,2190.907831937842
200,1.430999994278,2.052456378937,19.85426039088,3.352735757828,2204.9771435507355
201,1.432999998331,2.06266450882,19.844052261,3.374098062515,2219.026384818385
202,1.435000002384,2.072872638702,19.83384413112,3.395765542984,2233.2763295332134
203,1.436999991536,2.083080768585,19.82363600123,3.417463541031,2247.546344592628
204,1.438999995589,2.093243122101,19.81347364772,3.439375162125,2261.956852064805
205,1.440999999642,2.103390216827,19.80332655299,3.461683511734,2276.6282740172614
206,1.443000003695,2.113537311554,19.79317945827,3.484083414078,2291.3599070041346
207,1.444999992847,2.123653888702,19.78306288112,3.506452798843,2306.071469645764
208,1.446999996901,2.133755207062,19.77296156276,3.528700113297,2320.7027509097056
209,1.449000000954,2.143826007843,19.76289076198,3.551191568375,2335.494594930338
210,1.451000005007,2.153866291046,19.75285047877,3.574293375015,2350.687845844012
211,1.452999994159,2.163906574249,19.74281019557,3.598036050797,2366.3025739966297
212,1.454999998212,2.173931598663,19.73278517116,3.621778726578,2381.9173021485904
213,1.457000002265,2.183956623077,19.72276014674,3.645246744156,2397.351397198616
214,1.458999991417,2.193966388702,19.71275038112,3.668409585953,2412.5847888021203
215,1.46099999547,2.203991413116,19.7027253567,3.690962076187,2427.4167735119254
216,1.462999999523,2.214016437531,19.69270033229,3.713087320328,2441.967773396864
217,1.465000003576,2.224026203156,19.68269056666,3.735243082047,2456.538843626389
218,1.466999992728,2.23405122757,19.67266554225,3.75813126564,2471.591602127301
219,1.468999996781,2.244060993195,19.66265577662,3.781477212906,2486.9454157989817
220,1.471000000834,2.254086017609,19.65263075221,3.804487466812,2502.0784556788967
221,1.473000004888,2.264111042023,19.6426057278,3.827284097672,2517.0710031467074
222,1.47499999404,2.274136066437,19.63258070338,3.850111246109,2532.083620958447
223,1.476999998093,2.284161090851,19.62255567897,3.873274087906,2547.3170125619517
224,1.479000002146,2.294201374054,19.61251539577,3.895887613297,2562.1891379615868
225,1.480999991298,2.304226398468,19.60249037135,3.91828751564,2576.9207709478023
226,1.482999995351,2.314251422882,19.59246534694,3.941053628922,2591.8932480710273
227,1.484999999404,2.324291706085,19.58242506373,3.963972330093,2606.9660769165257
228,1.487000003457,2.33430147171,19.57241529811,3.98664689064,2621.8783430053336
229,1.488999992609,2.344326496124,19.56239027369,4.009230136871,2636.73055485957
230,1.491500005126,2.356823444366,19.54989332545,4.038069248199,2655.6970305712584
231,1.494000002742,2.369320392609,19.53739637721,4.067366123199,2674.9645614530573
232,1.496500000358,2.381817340851,19.52489942897,4.096479892731,2694.1116702673385
233,1.498999997973,2.394299030304,19.51241773952,4.125868320465,2713.4394121828964
234,1.501499995589,2.406765460968,19.49995130885,4.154829502106,2732.486169273588
235,1.503999993205,2.419231891632,19.48748487819,4.184156894684,2751.773770499974
236,1.506499990821,2.431698322296,19.47501844752,4.213911533356,2771.342356551883
237,1.509000003338,2.444149494171,19.46256727565,4.243513584137,2790.810590880203
238,1.511500000954,2.456600666046,19.45011610377,4.273298740387,2810.399247276699
239,1.513999998569,2.469051837921,19.4376649319,4.303480625153,2830.248818154132
240,1.516499996185,2.481487751007,19.42522901881,4.333662509918,2850.0983890309076
241,1.518999993801,2.493938922882,19.41277784694,4.363020420074,2869.4060606018797
