,time,travel,position,force,stress
0,0.0,0.0,13.69059665557,-0.0115002868697,-6.91995274966947
1,0.0,0.0,13.69059612658,-0.01153676491231,-6.941902317895172
2,0.0,0.0,13.69061797913,-0.01116829458624,-6.720186348985067
3,0.0,0.0,13.69061874654,-0.01111174467951,-6.686159138446446
4,0.0,0.0,13.69061572905,-0.01120496634394,-6.7422524794569885
5,0.0,0.0,13.62563167709,-0.01258921995759,-7.575185580043818
6,0.0,0.0,13.62563140747,-0.01201606169343,-7.23030478263348
7,0.008000001311302,-6.993068382144e-06,13.62563840054,-0.01115066185594,-6.709576382302831
8,0.01099999248981,-1.049344427884e-05,13.62564190091,-0.01100851967931,-6.624046590119445
9,0.01299999654293,-1.74306333065e-05,13.6256488381,-0.01083447411656,-6.519319892066994
10,0.01399999856949,-1.838803291321e-05,13.6256497955,-0.01079167798162,-6.493568601250629
11,0.1145000010729,-2.579986175988e-05,13.62565720733,-0.01289741881192,-7.760634998273982
12,0.2150000035763,-2.792575287458e-05,13.62565933322,-0.01305801793933,-7.857270707096465
13,0.3155000060797,-3.337426824146e-05,13.62566478174,-0.01232606265694,-7.416838566020499
14,0.4159999936819,-2.292826684425e-05,13.62565433573,-0.0120017202571,-7.221675253397347
15,0.5160000026226,0.001487542293034,13.62414386517,-0.01455871481448,-8.760270048354247
16,0.5645000040531,0.01162056997418,13.61401083749,-0.007126063574106,-4.2878950571117915
17,0.5830000042915,0.02162938192487,13.60400202554,0.008099584840238,4.873682284748799
18,0.5939999967813,0.03215603902936,13.59347536844,0.02125921845436,12.792097176868952
19,0.6019999980927,0.04286770895123,13.58276369852,0.0180359184742,10.852573075128035
20,0.6085000038147,0.05299954488873,13.57263186258,0.01498320605606,9.01569492319989
21,0.6145000010729,0.06307034939528,13.56256105807,0.01223280932754,7.360726171563838
22,0.6204999983311,0.07347302883863,13.55215837863,0.01217850949615,7.328052876385105
23,0.6264999955893,0.08395963162184,13.54167177585,0.01130163576454,6.8004204043504455
24,0.6324999928474,0.09422498196363,13.5314064255,0.01092910673469,6.576262232154394
25,0.6389999985695,0.104871802032,13.52075960544,0.01264762785286,7.610330779468446
26,0.6459999978542,0.1154041811824,13.51022722629,0.007096886169165,4.270338428669621
27,0.6539999991655,0.1258941590786,13.49973724839,0.02109810523689,12.695152129769555
28,0.6624999940395,0.1362319886684,13.4893994188,0.03104492835701,18.6803546538824
29,0.6710000038147,0.146321862936,13.47930954453,0.03714272007346,22.349517956785352
30,0.6799999922514,0.1569038331509,13.46872757432,0.0416850708425,25.082741314630297
31,0.6889999955893,0.1674285829067,13.45820282456,0.0512294434011,30.82578128216085
32,0.6975000053644,0.1776061952114,13.44802521226,0.05971333011985,35.930705697740215
33,0.7060000002384,0.1882301270962,13.43740128037,0.06908795237541,41.57160351094123
34,0.7134999930859,0.1982856690884,13.42734573838,0.07946106791496,47.81331471465668
35,0.7204999923706,0.2084022462368,13.41722916123,0.07892939448357,47.49339617130565
36,0.7274999916553,0.2187133729458,13.40691803452,0.0778441131115,46.84036065141719
37,0.734999999404,0.2293067872524,13.39632462022,0.07772716879845,46.76999291800172
38,0.7430000007153,0.2396446168423,13.38598679063,0.082165569067,49.44066717947668
39,0.7520000040531,0.249822229147,13.37580917832,0.08771023154259,52.7770015491035
40,0.7629999965429,0.2599998414516,13.36563156602,0.09058734029531,54.50821546142239
41,0.777999997139,0.2700725495815,13.35555885789,0.1188237294555,71.4986158769636
42,0.7919999957085,0.2802711427212,13.34536026475,0.1336419135332,80.41501377341568
43,0.8034999966621,0.2906909883022,13.33494041917,0.1401412039995,84.32576690877173
44,0.8135000020266,0.3009029328823,13.32472847459,0.14486284554,87.16687311171542
45,0.8229999989271,0.3111072480679,13.3145241594,0.1504551917315,90.531899727437
46,0.8324999958277,0.3213306367397,13.30430077073,0.155098631978,93.32595064684088
47,0.8425000011921,0.3316303193569,13.29400108811,0.1645915061235,99.0380029886389
48,0.8530000001192,0.3418460786343,13.28378532883,0.1748530417681,105.2125743366607
49,0.863999992609,0.3520275056362,13.27360390183,0.1874682456255,112.80339494920193
50,0.875,0.3620983064175,13.26353310105,0.1984660178423,119.42097457605423
51,0.8859999924898,0.3723541200161,13.25327728745,0.2107302695513,126.80062025775773
52,0.8965000063181,0.3824878633022,13.24314354417,0.2217661887407,133.44115368140882
53,0.9064999967813,0.3925837576389,13.23304764983,0.2354035228491,141.64701052053005
54,0.9159999936819,0.4027461111546,13.22288529631,0.2462200969458,148.15555961243763
55,0.9249999970198,0.4128207266331,13.21281068083,0.2558331489563,153.9399253805683
56,0.9340000003576,0.4231127798557,13.20251862761,0.26531457901,159.64509158331464
57,0.9430000036955,0.4333399832249,13.19229142424,0.2745747566223,165.21712576443545
58,0.952500000596,0.4437197744846,13.18191163298,0.2860798835754,172.13999088914494
59,0.9625000059605,0.4540576040745,13.17157380339,0.297785282135,179.1833634472587
60,0.9730000048876,0.4641360342503,13.16149537322,0.3143219947815,189.13383437421803
61,0.9839999973774,0.4741858541965,13.15144555327,0.3339066505432,200.91831366808464
62,0.9950000047684,0.4843977987766,13.14123360869,0.3525834083557,212.1564925973457
63,1.005500003695,0.4946364462376,13.13099496123,0.3684182167053,221.68461366256935
64,1.015499994159,0.5047606825829,13.12087072488,0.3820748329163,229.90207292869246
65,1.025499999523,0.5149573683739,13.11067403909,0.397207736969,239.00784413218048
66,1.035500004888,0.5249709486961,13.10066045877,0.4128136634827,248.39824241643083
67,1.046000003815,0.535137116909,13.09049429056,0.4312882423401,259.5147662224657
68,1.056999996305,0.5455455183983,13.08008588907,0.4527878761292,272.45152611736484
69,1.068000003695,0.5559710860252,13.06966032144,0.472948551178,284.5826077433987
70,1.078500002623,0.5661239027977,13.05950750467,0.492552280426,296.3785639356647
71,1.08900000155,0.5765990614891,13.04903234598,0.5126252174377,308.4568518289891
72,1.098999992013,0.5867766737938,13.03885473367,0.5312180519104,319.64453240524466
73,1.108999997377,0.5969504714012,13.02868093607,0.5510659217834,331.5873928972396
74,1.119000002742,0.606971681118,13.01865972635,0.5724358558655,344.4461098829266
75,1.129500001669,0.6173171401024,13.00831426737,0.5951943397522,358.1403450732689
76,1.140000000596,0.627557694912,12.99807371256,0.6176781654358,371.6693129264313
77,1.150499999523,0.6378783583641,12.9877530491,0.6406273841858,385.4783171009481
78,1.16099999845,0.6483756303787,12.97725577709,0.6636279225349,399.31820130523533
79,1.171000003815,0.6584883928299,12.96714301464,0.6864932179451,413.0767071267467
80,1.180999994278,0.6686011552811,12.95703025219,0.711380302906,428.05176418033915
81,1.190999999642,0.6786605119705,12.9469708955,0.7376788258553,443.8761117168108
82,1.201499998569,0.6891127824783,12.93651862499,0.7655108571053,460.6232018859057
83,1.211999997497,0.699534535408,12.92609687206,0.7927477955818,477.01221282437376
84,1.222499996424,0.7100020647049,12.91562934276,0.8193896412849,493.0431445322753
85,1.232500001788,0.7200614213943,12.90556998607,0.8443682789803,508.0732906983413
86,1.242499992251,0.730109333992,12.89552207348,0.8703616261482,523.7140078600615
87,1.25300000608,0.7405539751053,12.88507743236,0.8983691334724,540.5666854945753
88,1.263500005007,0.7509299516678,12.8747014558,0.9276583790779,558.190610702696
89,1.274000003934,0.7612944841385,12.86433692333,0.9571765065193,575.9522586917898
90,1.283999994397,0.771311879158,12.85431952831,0.9844592213631,592.3688141865248
91,1.293999999762,0.7814322710037,12.84419913646,1.01316857338,609.6438058177342
92,1.304000005126,0.7915259599686,12.8341054475,1.042160272598,627.0886914100901
93,1.314500004053,0.8020049333572,12.82362647411,1.073097467422,645.7042206412303
94,1.32500000298,0.8123427629471,12.81328864452,1.10495018959,664.8706409965044
95,1.335500001907,0.8225146532059,12.80311675426,1.137497186661,684.4548204545275
96,1.346000000834,0.8327075242996,12.79292388317,1.168297052383,702.9877160168071
97,1.356499999762,0.8429995775223,12.78263182995,1.198829889297,721.3599350016152
98,1.366999998689,0.853436589241,12.77219481823,1.230407953262,740.3610880197696
99,1.377000004053,0.8634845018387,12.76214690563,1.260856866837,758.6828086520537
100,1.386999994516,0.8736010789871,12.75203032848,1.2932741642,778.1889452002629
101,1.396999999881,0.8836451768875,12.74198623058,1.325935602188,797.8419860482009
102,1.407499998808,0.894138276577,12.73149313089,1.36156475544,819.2807605594844
103,1.417500004172,0.904148042202,12.72148336527,1.395164608955,839.4984648092985
104,1.427499994636,0.914157807827,12.71147359964,1.426391720772,858.2884428968558
105,1.437999993563,0.9245566725731,12.70107473489,1.459884762764,878.4418765158017
106,1.44849999249,0.934909760952,12.69072164652,1.49535381794,899.7843168109231
107,1.459000006318,0.945350587368,12.6802808201,1.531128048897,921.310387480555
108,1.469500005245,0.9558410048485,12.66979040262,1.56672680378,942.7308706848885
109,1.479499995708,0.9659652113914,12.65966619608,1.602768063545,964.4176179319916
110,1.489500001073,0.9761924147606,12.64943899271,1.63703930378,985.0393090068125
111,1.499499991536,0.9864119887352,12.63921941873,1.671898007393,1006.0144885523107
112,1.509499996901,0.9965247511864,12.62910665628,1.705978512764,1026.5214106425356
113,1.519500002265,1.006526947021,12.61910446045,1.742668271065,1048.5983724363016
114,1.529499992728,1.016529083252,12.60910232422,1.779502987862,1070.7625586579748
115,1.539499998093,1.026706695557,12.59892471191,1.815643429756,1092.5089857768994
116,1.549500003457,1.036975860596,12.58865554687,1.850853085518,1113.6953402535964
117,1.55949999392,1.047119140625,12.57851226684,1.887199521065,1135.565717875812
118,1.569499999285,1.057132720947,12.56849868652,1.922538876534,1156.830115261721
119,1.579999998212,1.067481994629,12.55814941284,1.960312008858,1179.5589648852706
120,1.590499997139,1.077739715576,12.54789169189,1.99998486042,1203.4309135909164
121,1.600999996066,1.088188171387,12.53744323608,2.038948059082,1226.8758499452788
122,1.611000001431,1.098384857178,12.52724655029,2.076202392578,1249.2925279319795
123,1.620999991894,1.108665466309,12.51696594116,2.113975524902,1272.021377555529
124,1.630999997258,1.118869781494,12.50676162597,2.150970458984,1294.2819697238056
125,1.641000002623,1.128902435303,12.49672897216,2.189292907715,1317.3413540221964
126,1.65150000155,1.139324188232,12.48630721924,2.229499816895,1341.534655883988
127,1.662000000477,1.149758219719,12.47587318775,2.269194602966,1365.4198030226457
128,1.672499999404,1.160214304924,12.46541710254,2.30827999115,1388.9382632576142
129,1.682999998331,1.17061316967,12.4550182378,2.347365379333,1412.456723491981
130,1.693499997258,1.180977702141,12.44465370533,2.385031700134,1435.1213024846622
131,1.703999996185,1.191262125969,12.4343692815,2.423880577087,1458.4974491789487
132,1.714499995112,1.201592326164,12.4240390813,2.462225914001,1481.570605755082
133,1.72499999404,1.212086558342,12.41354484913,2.502463340759,1505.7822706542645
134,1.734999999404,1.222271800041,12.40335960743,2.540495872498,1528.6672060968401
135,1.745000004768,1.232521891594,12.39310951587,2.579131126404,1551.9148115287885
136,1.754999995232,1.242691874504,12.38293953296,2.618208885193,1575.4286810041085
137,1.765000000596,1.252701640129,12.37292976734,2.655898094177,1598.1070322745322
138,1.775499999523,1.263033747673,12.36259765979,2.694960594177,1621.6117202311566
139,1.78599999845,1.27336204052,12.35226936695,2.735510826111,1646.0116062644986
140,1.796499997377,1.283860087395,12.34177132007,2.774840354919,1669.6769707985943
141,1.806500002742,1.293961405754,12.33167000171,2.811743736267,1691.882473854698
142,1.816499993205,1.304055094719,12.32157631275,2.84961605072,1714.6710033500688
143,1.826499998569,1.314099192619,12.31153221485,2.887473106384,1737.450351326744
144,1.836999997497,1.32454764843,12.30108375904,2.926878929138,1761.1616234549188
145,1.847499996424,1.334915995598,12.29071541187,2.968008995056,1785.910407199891
146,1.857500001788,1.344921946526,12.28070946094,3.008322715759,1810.167979692551
147,1.867499992251,1.355088114738,12.27054329273,3.049201011658,1834.7652683787476
148,1.877499997616,1.365326762199,12.26030464527,3.088751792908,1858.5637649348298
149,1.88750000298,1.375439524651,12.25019188282,3.129454612732,1883.0554661551264
150,1.898000001907,1.385838389397,12.23979301807,3.172316551208,1908.8463522759432
151,1.908500000834,1.396164655685,12.22946675178,3.214844226837,1934.4361057525562
152,1.918999999762,1.406601667404,12.21902974006,3.258118152618,1960.4748928793535
153,1.929000005126,1.416695356369,12.2089360511,3.299988269806,1985.6689802831613
154,1.938999995589,1.426922559738,12.19870884773,3.342789173126,2011.4231403291965
155,1.949000000954,1.437203168869,12.1884282386,3.385590076447,2037.1773003758333
156,1.959000006318,1.447354078293,12.17827732917,3.427933216095,2062.656014859802
157,1.969500005245,1.457825422287,12.16780598518,3.471649646759,2088.961066029971
158,1.980000004172,1.468216657639,12.15741474983,3.514069080353,2114.485688108018
159,1.990500003099,1.478611707687,12.14701969978,3.556252002716,2139.8679966453833
160,2.001000002027,1.489025831223,12.13660557624,3.598556995392,2165.323757332914
161,2.011500000954,1.49943614006,12.12619526741,3.642120838165,2191.5369933155266
162,2.021999999881,1.50981593132,12.11581547615,3.686188220978,2218.0532194168945
163,2.032499998808,1.520264387131,12.10536702034,3.731277942657,2245.1846072726626
164,2.042500004172,1.530354261398,12.09527714607,3.772049427032,2269.717625327389
165,2.052499994636,1.540474653244,12.08515675422,3.814041614532,2294.9851648807603
166,2.0625,1.550587415695,12.07504399177,3.85688829422,2320.766869483484
167,2.072500005364,1.560658216476,12.06497319099,3.899185657501,2346.2180394113657
168,2.083000004292,1.571083784103,12.05454762336,3.943832874298,2373.083163224364
169,2.093500003219,1.581368207932,12.04426319954,3.990234851837,2401.004161691551
170,2.104000002146,1.591713666916,12.03391774055,4.035477161407,2428.227364734875
171,2.113999992609,1.601731061935,12.02390034553,4.07856798172,2454.1559736373274
172,2.123999997973,1.61186671257,12.0137646949,4.121429920197,2479.9468597587465
173,2.134000003338,1.622029066086,12.00360234138,4.165100574493,2506.224366372227
174,2.143999993801,1.632122755051,11.99350865242,4.208984851837,2532.630414248648
175,2.153999999166,1.642143964767,11.9834874427,4.253983020782,2559.706712992243
176,2.16400000453,1.65214908123,11.97348232624,4.29857635498,2586.539414567141
177,2.173999994993,1.662158846855,11.96347256061,4.343650817871,2613.661620904815
178,2.184000000358,1.672183871269,11.9534475362,4.38892364502,2640.9031869861324
179,2.194000005722,1.682289004326,11.94334240314,4.433876037598,2667.9519411736414
180,2.203999996185,1.692451357841,11.93318004963,4.478660583496,2694.8996986548987
181,2.21400000155,1.702545046806,11.92308636066,4.523445129395,2721.847456136758
182,2.223999992013,1.712585330009,11.91304607746,4.570106506348,2749.9245404223693
183,2.233999997377,1.722690463066,11.9029409444,4.615989685059,2777.533367252707
184,2.244000002742,1.732849001884,11.89278240558,4.66136932373,2804.8392039642904
185,2.253999993205,1.742954134941,11.88267727253,4.706184387207,2831.805324483541
186,2.263999998569,1.752982974052,11.87264843342,4.752220153809,2859.505966501435
187,2.274499997497,1.763439059258,11.86219234821,4.799354553223,2887.8676778678087
188,2.284999996424,1.773879885674,11.85175152179,4.846290588379,2916.11002949054
189,2.295499995351,1.784259676933,11.84137173053,4.893989562988,2944.8114570498483
190,2.305999994278,1.794662356377,11.83096905109,4.942863464355,2974.2198615517154
191,2.316499993205,1.805091738701,11.82053966877,4.99080657959,3003.068193411355
192,2.326999992132,1.815559267998,11.81007213947,5.037315368652,3031.05346250941
193,2.33750000596,1.8260191679,11.79961223957,5.085090637207,3059.800797662798
194,2.348000004888,1.8364828825,11.78914852497,5.133781433105,3089.0990239397174
195,2.357999995351,1.846507906914,11.77912350055,5.17894744873,3116.2763193895644
196,2.368000000715,1.856628298759,11.76900310871,5.224678039551,3143.793331032948
197,2.37800000608,1.866763949394,11.75886745807,5.271369934082,3171.8887783559503
198,2.387999996543,1.876823306084,11.74880810138,5.318580627441,3200.2963973158016
199,2.398000001907,1.886871218681,11.73876018879,5.36450958252,3227.9327687028276
200,2.407999992371,1.896890997887,11.72874040958,5.412854194641,3257.022689273404
201,2.417999997735,1.906935095787,11.71869631168,5.461453437805,3286.265826438151
202,2.428000003099,1.917021155357,11.70861025211,5.510266304016,3315.637504865236
203,2.437999993563,1.927149176598,11.69848223087,5.557751655579,3344.2103911628087
204,2.447999998927,1.937284827232,11.68834658024,5.604962348938,3372.6180101226596
205,2.458000004292,1.947412848473,11.67821855899,5.65246295929,3401.2000779389277
206,2.467999994755,1.957476019859,11.66815538761,5.699551582336,3429.5342447486137
207,2.478000000119,1.967489600182,11.65814180729,5.747174263,3458.1897647144447
208,2.488000005484,1.977506995201,11.64812441227,5.795575141907,3487.313542136151
209,2.497999995947,1.98753964901,11.63809175846,5.84467792511,3516.8596694190514
210,2.508000001311,1.997576117516,11.62805528995,5.893628120422,3546.3139815143954
211,2.517999991775,2.007589817047,11.61804159042,5.943325996399,3576.2181880282237
212,2.527999997139,2.017645359039,11.60798604843,5.991787910461,3605.37869152411
213,2.538000002503,2.027681827545,11.59794957992,6.040417671204,3634.6401917268495
214,2.548500001431,2.038172245026,11.58745916244,6.091732978821,3665.517639226005
215,2.558499991894,2.048182010651,11.57744939682,6.140210151672,3694.6873242405873
216,2.569000005722,2.058676242828,11.56695516464,6.18989276886,3724.58234923572
217,2.579500004649,2.069036960602,11.55659444687,6.241024971008,3755.3496185099284
218,2.590000003576,2.079420566559,11.54621084091,6.293271064758,3786.7871386519137
219,2.59999999404,2.089460849762,11.53617055771,6.34141254425,3815.754830254594
220,2.609999999404,2.099493503571,11.5261379039,6.390210151672,3845.1173271629837
221,2.620000004768,2.109545230865,11.5160861766,6.441143989563,3875.7652366941516
222,2.629999995232,2.119677066803,11.50595434066,6.492093086243,3906.422327744015
223,2.640000000596,2.129786014557,11.49584539291,6.541745185852,3936.298989701155
224,2.650499999523,2.140165805817,11.48546560165,6.594906806946,3968.2874009672737
225,2.66099999845,2.150399446487,11.47523196098,6.647594928741,3999.990898229664
226,2.671499997377,2.160605669022,11.46502573845,6.700817584991,4032.016035570565
227,2.681999996305,2.170935869217,11.45469553825,6.754253864288,4064.169714173803
228,2.692499995232,2.181414842606,11.44421656486,6.80680513382,4095.790864690901
229,2.702500000596,2.191546678543,11.43408472892,6.858105182648,4126.659130671361
230,2.71250000596,2.201697587967,11.4239338195,6.909878253937,4157.812023732584
231,2.722499996424,2.211764574051,11.41386683342,6.961193561554,4188.68947123174
232,2.732999995351,2.222228288651,11.40340311882,7.014523029327,4220.778879203509
233,2.743499994278,2.232642412186,11.39298899528,7.069286823273,4253.731349936862
234,2.753999993205,2.243045091629,11.38258631584,7.123608112335,4286.417556626242
235,2.764499992132,2.25345158577,11.3721798217,7.177746295929,4318.993585091277
236,2.77500000596,2.263823747635,11.36180765983,7.230846881866,4350.945270282013
237,2.785500004888,2.274071931839,11.35155947563,7.285564899445,4383.870196459279
238,2.796000003815,2.284251451492,11.34137995598,7.34130525589,4417.410284390946
239,2.806500002742,2.294549226761,11.33108218071,7.396557331085,4450.656563723155
240,2.816499993205,2.304589509964,11.3210418975,7.450466632843,4483.094869407157
241,2.826499998569,2.31479382515,11.31083758232,7.50602388382,4516.524779114478
