,time,travel,position,force,stress
0,0.0,0.0,27.08409722309,-0.01806866191328,-9.985127981092969
1,0.0,0.0,27.08409294273,-0.01795231364667,-9.920831447234791
2,0.0,0.0,27.0840868924,-0.01746355555952,-9.650733302977631
3,0.0,0.0,27.08407062778,-0.01730615086854,-9.563748113271663
4,0.0,0.0,27.08406772578,-0.01719337888062,-9.501427907300247
5,0.0,0.0,27.07646125679,-0.01593191362917,-8.804315302067858
6,0.0,0.0,27.07645870485,-0.01619894243777,-8.951881117472823
7,0.008000001311302,1.737498678267e-06,27.07645696735,-0.01652545668185,-9.132319853359093
8,0.01100000739098,-5.102134309709e-06,27.07646380698,-0.01632470823824,-9.021381981419731
9,0.01299999654293,-2.441191099933e-06,27.07646114604,-0.0162861738354,-9.00008704846459
10,0.01399999856949,-4.985564373783e-06,27.07646369041,-0.01635865308344,-9.040140626926915
11,0.1140000075102,2.629290429468e-05,27.07643241194,-0.01645845547318,-9.095293556300195
12,0.2144999951124,-2.85941769107e-05,27.07648729903,-0.01596741192043,-8.823932415003084
13,0.3145000040531,2.137699266314e-05,27.07643732786,-0.01583611220121,-8.751373389515441
14,0.4150000065565,-1.998343213927e-05,27.07647868828,-0.01475107204169,-8.151757053262571
15,0.5155000090599,0.004419831559062,27.07203887329,-0.005315726157278,-2.93758365990861
16,0.5340000092983,0.01483776979148,27.06162093506,0.01174717582762,6.491739931719964
17,0.542999997735,0.02497914247215,27.05147956238,0.02479725517333,13.703492138703277
18,0.5499999970198,0.03579762205482,27.04066108279,0.01849179901183,10.218962567342256
19,0.5560000091791,0.04653599485755,27.02992270999,0.003721291664988,2.0564651498941307
20,0.5614999979734,0.05680134519935,27.01965735965,-0.00922960601747,-5.100477154413378
21,0.5670000016689,0.06690648198128,27.00955222287,-0.01208299957216,-6.6773232961337525
22,0.5729999989271,0.077457934618,26.99900077023,-0.01925081573427,-10.63841139812606
23,0.5795000046492,0.08770802617073,26.98875067868,-0.03015941940248,-16.666738467660796
24,0.5875000059605,0.09806874394417,26.97838996091,-0.02595419250429,-14.342840385473513
25,0.5984999984503,0.1082043945789,26.96825431027,-0.02647108398378,-14.628485642428085
26,0.6155000030994,0.1184983551502,26.9579603497,0.01802735961974,9.962303452697402
27,0.6274999976158,0.1288934051991,26.94756529965,0.01898562349379,10.491860509438537
28,0.6370000094175,0.1391244232655,26.93733428158,0.0121039096266,6.688878638232525
29,0.6459999978542,0.1493439972401,26.92711470761,0.009390706196427,5.189504549600862
30,0.6550000011921,0.159510165453,26.9169485394,0.007657642010599,4.231776313940941
31,0.6644999980927,0.1696839630604,26.90677474179,0.00167190504726,0.9239303911517982
32,0.6755000054836,0.1797833740711,26.89667533078,0.01157068647444,6.39420815060299
33,0.6870000064373,0.1898293793201,26.88662932553,0.02541231550276,14.04338759609395
34,0.6975000053644,0.2000947296619,26.87636397519,0.02801000513136,15.478926294046172
35,0.7074999958277,0.2106232941151,26.86583541073,0.02693250216544,14.883475171746358
36,0.7170000076294,0.2207513153553,26.85570738949,0.02598314918578,14.35884246531612
37,0.7269999980927,0.2311234772205,26.84533522763,0.02418928779662,13.367516398279633
38,0.7374999970198,0.2412000000477,26.8352587048,0.02883564867079,15.935194525060659
39,0.7485000044107,0.2513127624989,26.82514594235,0.0383552275598,21.19591687346064
40,0.7590000033379,0.2614636719227,26.81499503293,0.04200160130858,23.21098078484558
41,0.7690000087023,0.2716714143753,26.80478729047,0.04482885450125,24.77338120493507
42,0.7789999991655,0.2821465730667,26.79431213178,0.04708429425955,26.019785324308106
43,0.78900000453,0.2925759553909,26.78388274946,0.04745437949896,26.22430232159092
44,0.7989999949932,0.302600979805,26.77385772504,0.04981472343206,27.528678725583383
45,0.8095000088215,0.3127099275589,26.76374877729,0.05719616264105,31.607819479899664
46,0.8200000077486,0.3228780031204,26.75358070173,0.06302120536566,34.826862338730095
47,0.8305000066757,0.3332997560501,26.7431589488,0.0654187425971,36.151792552725
48,0.840499997139,0.3433552980423,26.73310340681,0.06891062110662,38.081479099483566
49,0.8505000025034,0.3534070253372,26.72305167951,0.07272055000067,40.18692707280543
50,0.8610000014305,0.3637562990189,26.71270240583,0.07626535743475,42.145863272259355
51,0.8715000003576,0.3739300966263,26.70252860822,0.0815172418952,45.04816664874591
52,0.8819999992847,0.384180188179,26.69227851667,0.08805181831121,48.65931295992548
53,0.8920000046492,0.3942013978958,26.68225730695,0.09219696372747,50.9500087336494
54,0.9019999951124,0.4044171571732,26.67204154768,0.09498693794012,52.49180799421248
55,0.9120000004768,0.4146023988724,26.66185630598,0.0982032045722,54.269185538646695
56,0.9220000058413,0.4246388673782,26.65181983747,0.1020941957831,56.41943027733369
57,0.9325000047684,0.4350453615189,26.64141334333,0.1078706011176,59.61159507694504
58,0.9430000036955,0.4455090761185,26.63094962873,0.1138663515449,62.92497465350802
59,0.9530000090599,0.4556218385696,26.62083686628,0.1191573366523,65.84888588152299
60,0.9629999995232,0.4659024477005,26.61055625715,0.1233191713691,68.14880451871112
61,0.9730000048876,0.4762364625931,26.60022224226,0.1263218075037,69.80812529346088
62,0.9829999953508,0.4864484071732,26.59001029768,0.130005851388,71.84400652524494
63,0.9935000091791,0.4968930482864,26.57956565656,0.1343135982752,74.22455934012899
64,1.004000008106,0.5072308778763,26.56922782697,0.1394081264734,77.03990428965878
65,1.014500007033,0.5176320075989,26.55882669725,0.1452307105064,80.25758842306118
66,1.024499997497,0.5276646614075,26.54879404344,0.1503710150719,83.09823036957911
67,1.034500002861,0.5377926826477,26.5386660222,0.1536039710045,84.88483077746645
68,1.044500008225,0.5479054450989,26.52855325975,0.1581110358238,87.37553093311638
69,1.055000007153,0.5583920478821,26.51806665697,0.1625737547874,89.84172462300137
70,1.06550000608,0.56876039505,26.5076983098,0.1685056090355,93.11979380802141
71,1.076000005007,0.579185962677,26.49727274217,0.1745061278343,96.43580848838552
72,1.08599999547,0.5892720222473,26.4871866826,0.1781186461449,98.4321631624896
73,1.096000000834,0.5994076728821,26.47705103197,0.1824735999107,100.83880350541924
74,1.106000006199,0.6094746589661,26.46698404588,0.1868299841881,103.2462343795721
75,1.116500005126,0.6198735237122,26.45658518114,0.1913761496544,105.75854238677806
76,1.127000004053,0.6300530433655,26.44640566148,0.195998609066,108.31301205552039
77,1.13750000298,0.6401257514954,26.43633295335,0.2019857764244,111.62164844513083
78,1.148000001907,0.6503033638,26.42615534105,0.2066234946251,114.18455044620255
79,1.158500000834,0.6606793403625,26.41577936449,0.2115778326988,116.92242334265302
80,1.168500006199,0.6707615852356,26.40569711961,0.215903699398,119.31298955214712
81,1.178499996662,0.680878162384,26.39558054247,0.2203363776207,121.76258208783635
82,1.188999995589,0.6913723945618,26.38508631029,0.2265085577965,125.17346050669877
83,1.199500009418,0.7017750740051,26.37468363084,0.2325367331505,128.5047587893857
84,1.210000008345,0.7122349739075,26.36422373094,0.2384504675865,131.7728145797404
85,1.219999998808,0.7222790718079,26.35417963304,0.2428907752037,134.22662328156673
86,1.230000004172,0.7324452400208,26.34401346483,0.248377263546,137.25857376730667
87,1.240000009537,0.7427105903625,26.33374811449,0.2525734305382,139.57746515219443
88,1.25,0.7529873847961,26.32347132005,0.2571377158165,142.09978655401048
89,1.260000005364,0.7631268501282,26.31333185472,0.2626928687096,145.16968253514975
90,1.270500004292,0.7736167907715,26.30284191408,0.2684090733528,148.32857914865713
91,1.281000003219,0.7840385437012,26.29242016115,0.2739642262459,151.39847512979637
92,1.291000008583,0.7940444946289,26.28241421022,0.2800076603889,154.73820574475744
93,1.300999999046,0.8041534423828,26.27230526247,0.2854216694832,157.73010265205716
94,1.311000004411,0.8143539428711,26.26210476198,0.2902997136116,160.42581388697124
95,1.320999994874,0.8246116638184,26.25184704103,0.2965119481087,163.8588271781499
96,1.331000000238,0.8347969055176,26.24166179933,0.3008721470833,166.26836613534368
97,1.341000005603,0.8448371887207,26.23162151613,0.3055575489998,168.85761917486872
98,1.35150000453,0.8551425933838,26.22131611147,0.3100998997688,171.36781909897852
99,1.362000003457,0.8653240203857,26.21113468446,0.3152983784676,174.24060931242278
100,1.372500002384,0.8755416870117,26.20091701784,0.320194542408,176.9463339419469
101,1.383000001311,0.8859519958496,26.190506709,0.326750099659,180.56907471006693
102,1.393000006676,0.8960762023926,26.18038250246,0.3323634266853,183.67111895807727
103,1.402999997139,0.9063339233398,26.17012478151,0.3363063931465,185.85008632872152
104,1.413000002503,0.9165458679199,26.15991283693,0.3407209515572,188.2896654698007
105,1.423000007868,0.9265670776367,26.14989162721,0.3464668393135,191.46496560475325
106,1.433500006795,0.9368553161621,26.13960338869,0.3512495160103,194.1079747627607
107,1.444000005722,0.946985244751,26.1294734601,0.3579481244087,197.8097686462407
108,1.454500004649,0.9571971893311,26.11926151552,0.3649690747261,201.68969554977136
109,1.465000003576,0.9676380157471,26.1088206891,0.3702610135078,204.61413379854653
110,1.475000008941,0.9777088165283,26.09874988832,0.3757961392403,207.6729623435553
111,1.484999999404,0.9878635406494,26.0885951642,0.3810146450996,210.55681999307478
112,1.495000004768,0.9980030059814,26.07845569887,0.3845861554146,212.53051277410236
113,1.504999995232,1.008031845093,26.06842685976,0.3892181515694,215.09025265055746
114,1.51550000906,1.018521547318,26.05793715753,0.395479619503,218.55047338890412
115,1.525499999523,1.028649568558,26.04780913629,0.4007810950279,221.4801818453921
116,1.535500004888,1.038815736771,26.03764296808,0.4057859778404,224.24598684263182
117,1.545499995351,1.048966646194,26.02749205865,0.4140123724937,228.79206799852568
118,1.555500000715,1.059144258499,26.01731444635,0.421210706234,232.77002076517124
119,1.56550000608,1.069337129593,26.00712157526,0.4255508780479,235.16849228617923
120,1.575499996543,1.079396486282,25.99706221857,0.4300884604454,237.67605710648792
121,1.58599999547,1.089894533157,25.98656417169,0.4361919760704,241.048990029951
122,1.596000000834,1.099942445755,25.97651625909,0.4403614401817,243.35312483327618
123,1.606000006199,1.10995221138,25.96650649347,0.4448694586754,245.84435200974158
124,1.616500005126,1.120431184769,25.95602752008,0.4524015784264,250.0067620456157
125,1.626499995589,1.130479097366,25.94597960748,0.4580110907555,253.10669821058514
126,1.636500000954,1.140622377396,25.93583632745,0.4633821845055,256.07487918323267
127,1.646500006318,1.150811433792,25.92564727106,0.4677767157555,258.5033908881261
128,1.656499996781,1.161057710648,25.9154009942,0.4727692008018,261.2623446153171
129,1.666500002146,1.171250581741,25.90520812311,0.4774145483971,263.8294627825811
130,1.67650000751,1.181355714798,25.89510299005,0.4832243323326,267.04007330907666
131,1.687000006437,1.191846132278,25.88461257257,0.4892792105675,270.3861281733262
132,1.697500005364,1.202252626419,25.87420607843,0.4948152899742,273.4454837390399
133,1.708000004292,1.21265912056,25.86379958429,0.5015234351158,277.1525478302327
134,1.718500003219,1.22314953804,25.85330916681,0.5063218474388,279.804252830922
135,1.728500008583,1.233155488968,25.84330321588,0.5098623633385,281.76081743693834
136,1.73900000751,1.243603944778,25.83285476007,0.5148586630821,284.5218792472255
137,1.749500006437,1.253983736038,25.82247496881,0.5215296149254,288.2083895284379
138,1.760000005364,1.26433300972,25.81212569513,0.5274433493614,291.4764453187927
139,1.770500004292,1.274699211121,25.80175949373,0.5342487096786,295.2372325896393
140,1.781000003219,1.285136222839,25.79132248201,0.5408300161362,298.8742029185616
141,1.791500002146,1.295599937439,25.78085876741,0.546755194664,302.1485829581496
142,1.802000001073,1.306078910828,25.77037979402,0.5511621236801,304.58394593303643
143,1.8125,1.316504478455,25.75995422639,0.5576652288437,308.17770055884677
144,1.822999998927,1.326941490173,25.74951721468,0.5647777318954,312.1082214561879
145,1.833000004292,1.336981773376,25.73947693147,0.571205496788,315.66034144122204
146,1.842999994755,1.347155570984,25.72930313387,0.5765460729599,318.61165774926604
147,1.853000000119,1.357382774353,25.7190759305,0.5806239843369,320.8651985587807
148,1.863000005484,1.367575645447,25.7088830594,0.583807349205,322.62439388663904
149,1.872999995947,1.377654075623,25.69880462923,0.5875347852707,324.6842545634278
150,1.883499994874,1.388049125671,25.68840957918,0.5938986539841,328.201064156919
151,1.894000008702,1.398335456848,25.678123248,0.6017397642136,332.5342289220348
152,1.904500007629,1.408741950989,25.66771675386,0.6094778776169,336.81047544405163
153,1.914499998093,1.418839454651,25.6576192502,0.6165236234665,340.7041048875692
154,1.924500003457,1.429051399231,25.64740730562,0.6208389997482,343.08887386859027
155,1.934500008821,1.439248085022,25.63721061983,0.6244047880173,345.05940452500124
156,1.944499999285,1.449357032776,25.62710167207,0.6291550397873,347.68449497682946
157,1.954500004649,1.459427833557,25.61703087129,0.6364811658859,351.7330685265056
158,1.964499995112,1.469502449036,25.60695625581,0.642280459404,354.9378818245834
159,1.974500000477,1.479626655579,25.59683204927,0.64881503582,358.54902813575745
160,1.984500005841,1.489842414856,25.58661628999,0.6532262563705,360.98676270409294
161,1.994499996305,1.499997138977,25.57646156587,0.6571692228317,363.16573007473716
162,2.004999995232,1.51044178009,25.56601692476,0.661061167717,365.31650183423966
163,2.01550000906,1.52068734169,25.55577136316,0.6679229736328,369.10848214686735
164,2.026000007987,1.530966043472,25.54549266138,0.6755447387695,373.3204321350316
165,2.036500006914,1.541464090347,25.5349946145,0.6823043823242,377.0559553477738
166,2.046499997377,1.551614999771,25.52484370508,0.6863212585449,379.27576682802624
167,2.056500002742,1.56164765358,25.51481105127,0.691990852356,382.40890530149767
168,2.067000001669,1.5719435215,25.50451518335,0.6988916397095,386.2224275880795
169,2.077500000596,1.58212685585,25.494331849,0.7064657211304,390.4080265377903
170,2.087999999523,1.592361688614,25.48409701624,0.7130651473999,394.05501026126757
171,2.09849999845,1.602741479874,25.47371722498,0.7209587097168,398.41716116869304
172,2.108500003815,1.612880945206,25.46357775964,0.7249965667725,400.64856710589146
173,2.118500009179,1.623153924942,25.45330477991,0.7290077209473,402.86521646152727
174,2.128499999642,1.633278131485,25.44318057336,0.733811378479,405.51982007642545
175,2.138999998569,1.643623590469,25.43283511438,0.7410821914673,409.5378264215112
176,2.149499997497,1.6539041996,25.42255450525,0.7486505508423,413.72026324660544
177,2.159999996424,1.664299249649,25.4121594552,0.7552518844604,417.3683010116031
178,2.170000001788,1.674347162247,25.4021115426,0.7593069076538,419.6091933226513
179,2.180000007153,1.684433221817,25.39202548303,0.7636861801147,422.02927269521535
180,2.189999997616,1.694469690323,25.38198901453,0.769250869751,425.10443888406735
181,2.200499996543,1.704902887344,25.3715558175,0.7754440307617,428.5269117598205
182,2.21099999547,1.715297937393,25.36116076746,0.7832546234131,432.8432118603328
183,2.221000000834,1.725342035294,25.35111666956,0.7903108596802,436.7426385323233
184,2.231000006199,1.735485315323,25.34097338953,0.7960271835327,439.90160102343265
185,2.240999996662,1.745670557022,25.33078814783,0.8013753890991,442.8571334976137
186,2.251000002027,1.75582909584,25.32062960901,0.8056240081787,445.2050110248112
187,2.261000007391,1.765854120255,25.31060458459,0.8109426498413,448.14420585514904
188,2.271500006318,1.776180386543,25.30027831831,0.8179975152016,452.0428749348002
189,2.282000005245,1.786510586739,25.28994811811,0.8257318139076,456.3170133737208
190,2.292500004172,1.796970486641,25.27948821821,0.8313899636269,459.44382759795906
191,2.302500009537,1.807060360909,25.26939834394,0.8365617394447,462.30186122978546
192,2.3125,1.817161679268,25.25929702558,0.8418918251991,465.24738030935646
193,2.322999998927,1.8275796175,25.24887908735,0.8475690484047,468.38473494896505
194,2.333499997854,1.83791744709,25.23854125776,0.8538022637367,471.8293426970344
195,2.343999996781,1.848217129707,25.22824157514,0.8604226708412,475.4879208774576
196,2.354499995708,1.858497738838,25.21796096601,0.8671441674232,479.202363259404
197,2.365000009537,1.868892788887,25.20756591596,0.8734956383705,482.71232158290184
198,2.375,1.878967404366,25.19749130048,0.8790374398232,485.77483927328745
199,2.385000005364,1.889007687569,25.18745101728,0.8846812844276,488.89374818590125
200,2.395500004292,1.89948284626,25.17697585859,0.8903117775917,492.00527880781664
201,2.406000003219,1.909855008125,25.16660369672,0.8962407708168,495.28176693050074
202,2.416500002146,1.920143246651,25.1563154582,0.9017930626869,498.3500818493041
203,2.427000001073,1.930399060249,25.1460596446,0.9086156487465,502.1203884328291
204,2.4375,1.940740704536,25.13571800031,0.9153771996498,505.8569656870918
205,2.447999998927,1.951215863228,25.12524284162,0.9227166771889,509.91291752757695
206,2.458000004292,1.961362957954,25.11509574689,0.928534090519,513.1277442202647
207,2.467999994755,1.971555829048,25.1049028758,0.9321323037148,515.1161935827997
208,2.478000000119,1.981691479683,25.09476722517,0.9370608925819,517.8398369184478
209,2.488000005484,1.991788983345,25.0846697215,0.9429889321327,521.1157980203716
210,2.498500004411,2.002279520035,25.07417918481,0.9485097527504,524.1667212538113
211,2.509000003338,2.012605905533,25.06385279932,0.9554696679115,528.0129188280796
212,2.519500002265,2.022925615311,25.05353308954,0.964383661747,532.9389819586717
213,2.530000001192,2.033366441727,25.04309226312,0.9717460274696,537.007582297568
214,2.540500000119,2.043833971024,25.03262473383,0.9775081276894,540.1918417856654
215,2.550500005484,2.053851366043,25.02260733881,0.9832664132118,543.3739931906114
216,2.560499995947,2.063933610916,25.01252509393,0.9893079400063,546.7126697641072
217,2.570500001311,2.074012041092,25.00244666376,0.994747698307,549.7187962320988
218,2.581000000238,2.084491014481,24.99196769037,0.9999509453773,552.5942215493442
219,2.591499999166,2.094943284988,24.98151541986,1.0074467659,556.7365718573907
220,2.601999998093,2.105403184891,24.97105551996,1.013246059418,559.9413851554132
221,2.61249999702,2.115905046463,24.96055365839,1.019979000092,563.6621517867034
222,2.622500002384,2.126048326492,24.95041037836,1.025287151337,566.595549388513
223,2.632500007749,2.136340379715,24.94011832513,1.031013965607,569.7603091080953
224,2.642499998212,2.146605730057,24.92985297479,1.034938335419,571.9289995737217
225,2.652500003576,2.156726121902,24.91973258295,1.041120052338,575.3451482002969
226,2.663000002503,2.167144060135,24.90931464471,1.047835826874,579.0564284575714
227,2.673500001431,2.177407503128,24.89905120172,1.055163860321,583.1060560486576
228,2.684000000358,2.187754869461,24.88870383539,1.062644481659,587.2400069630373
229,2.694000005722,2.197837114334,24.87862159052,1.068557262421,590.5075357327977
230,2.703999996185,2.20804142952,24.86841727533,1.073499202728,593.2385573589231
231,2.71400000155,2.218142747879,24.85831595697,1.07962179184,596.6220306981434
232,2.724500000477,2.228564500809,24.84789420404,1.085774898529,600.0223687013593
233,2.734999999404,2.238782167435,24.83767653741,1.0932097435,604.1310226189167
234,2.745499998331,2.248873949051,24.8275847558,1.102128505707,609.0597208533098
235,2.755999997258,2.259118318558,24.81734038629,1.109700679779,613.2442657613345
236,2.766000002623,2.269124269485,24.80733443536,1.114648342133,615.9784495126844
237,2.776000007987,2.279228925705,24.79722977914,1.118944048882,618.3523486903808
238,2.78599999845,2.289231061935,24.78722764291,1.124472498894,621.407488089847
239,2.796499997377,2.299572706223,24.77688599863,1.130570292473,624.7772588886381
240,2.806999996305,2.309860944748,24.7665977601,1.136797785759,628.2187045120356
