,time,travel,position,force,stress
0,0.0,0.0,21.92208663658,0.001828096690588,1.2022753089132867
1,0.0,0.0,21.92208775417,0.00174250442069,1.1459842641003843
2,0.0,0.0,21.92209034697,0.001101285102777,0.7242767266959734
3,0.0,0.0,21.922089438,0.0003259479417466,0.21436457074215104
4,0.0,0.0,21.92209532396,0.0002551376237534,0.16779509912840407
5,0.0,0.0,22.09633316266,0.0005162346060388,0.33950946010814975
6,0.0,0.0,22.09632893934,0.0008614647085778,0.5665552341709751
7,0.008000001311302,-4.446599632502e-06,22.09633338594,0.00103102508001,0.6780691650219356
8,0.01099999248981,-5.774665623903e-06,22.096334714,0.001368864206597,0.9002541524854464
9,0.01299999654293,-6.374903023243e-07,22.09632957683,0.001518114237115,0.9984106818803057
10,0.01399999856949,-2.883840352297e-06,22.09633182318,0.001571758417413,1.0336905846180724
11,0.1145000010729,3.678860230139e-05,22.09629215073,-0.0002020183310378,-0.13286039661091215
12,0.2150000035763,4.148232255829e-05,22.09628745701,0.002061924431473,1.3560556427722066
13,0.3154999911785,4.014995738544e-06,22.09632492434,-4.497305053519e-05,-0.02957720371321115
14,0.4155000001192,0.007242287509143,22.08908665183,0.02520945295691,16.579376242705884
15,0.4254999905825,0.01758965291083,22.07873928643,0.07849314808846,51.622200483977544
16,0.430999994278,0.02841194905341,22.06791699028,0.08964160084724,58.95414827069786
17,0.4350000023842,0.0387268923223,22.05760204701,0.09292033314705,61.11045592602769
18,0.4385000020266,0.0493470095098,22.04698192983,0.1054249107838,69.33427965398278
19,0.4414999932051,0.05970772728324,22.03662121205,0.1249409019947,82.16926506948988
20,0.4444999992847,0.07140358537436,22.02492535396,0.146257430315,96.18840082045733
21,0.4469999969006,0.08228310197592,22.01404583736,0.1583881676197,104.16636282621049
22,0.4494999945164,0.09416969865561,22.00215924068,0.1641865074635,107.9797283132661
23,0.4514999985695,0.1043320521712,21.99199688717,0.166017562151,109.18394899337854
24,0.4535000026226,0.1150437220931,21.98128521724,0.1658265292645,109.05831333974388
25,0.4554999917746,0.1262284219265,21.97010051741,0.164951056242,108.48254532703942
26,0.4574999958277,0.1377945840359,21.9585343553,0.1650557219982,108.551380337253
27,0.4594999998808,0.1497116982937,21.94661724104,0.1673521697521,110.06167377355655
28,0.4615000039339,0.1619187295437,21.93441020979,0.1720442473888,113.14748926633236
29,0.4634999930859,0.1743851602077,21.92194377913,0.1790938079357,117.7837388847817
30,0.465499997139,0.1870652139187,21.90926372542,0.1870512664318,123.01708125710779
31,0.4675000011921,0.1999588906765,21.89637004866,0.1937117278576,127.39743398102912
32,0.469499990344,0.2129746377468,21.88335430159,0.1992582976818,131.04521912452407
33,0.4714999943972,0.2260971963406,21.870231743,0.2037443816662,133.99555979081597
34,0.4734999984503,0.2392502725124,21.85707866682,0.2065367400646,135.8319963279628
35,0.4755000025034,0.2523423135281,21.84398662581,0.210362881422,138.3483157907667
36,0.4774999916553,0.2653428018093,21.83098613753,0.218907803297,143.9680122979581
37,0.4794999957085,0.2782517373562,21.81807720198,0.2324728667736,152.88928050314908
38,0.4814999997616,0.2910538613796,21.80527507796,0.2488913238049,163.68712593485685
39,0.4835000038147,0.3037796914577,21.79254924788,0.2660727202892,174.98672998319591
40,0.4854999929667,0.3164292275906,21.77989971175,0.281392544508,185.06204300683623
41,0.4874999970198,0.3290177285671,21.76731121077,0.2935385406017,193.05004018488253
42,0.4895000010729,0.3415146768093,21.75481426253,0.3024115264416,198.88549289729775
43,0.4914999902248,0.3538590371609,21.74246990218,0.3082327544689,202.71391114279314
44,0.493499994278,0.3660202920437,21.73030864729,0.3138937652111,206.43696007881564
45,0.4954999983311,0.3779068887234,21.71842205061,0.3228659331799,212.33764141139946
46,0.4975000023842,0.3895188271999,21.70681011214,0.336583584547,221.35926133985097
47,0.4994999915361,0.4008561074734,21.69547283186,0.354649990797,233.24090538362705
48,0.5014999955893,0.4119492471218,21.68437969222,0.3761038482189,247.3503576856276
49,0.5034999996424,0.4228287637234,21.67350017561,0.4001516997814,263.16578928443766
50,0.5055000036955,0.4335862100124,21.66274272932,0.4247488677502,279.34248708731434
51,0.5074999928474,0.4442673623562,21.65206157698,0.4482168853283,294.7765821374057
52,0.5094999969006,0.4549485146999,21.64138042464,0.4683890044689,308.04307996329464
53,0.5115000009537,0.4656144082546,21.63071453108,0.4841971099377,318.4395185016316
54,0.5135000050068,0.4762803018093,21.62004863753,0.4973807036877,327.1099073984411
55,0.5154999941587,0.4869309365749,21.60939800276,0.5098013281822,335.27851807855666
56,0.5174999982119,0.4975663125515,21.59876262679,0.522435605526,343.5876407713654
57,0.519500002265,0.5081406235695,21.58818831577,0.5356802344322,352.2981703574792
58,0.5214999914169,0.5186691880226,21.57765975131,0.5499319434166,361.6710213177041
59,0.52349999547,0.5291367173195,21.56719222202,0.5648245215416,371.46534951595197
60,0.5254999995232,0.5395575761795,21.55677136316,0.5799744725227,381.4289428475303
61,0.5275000035763,0.5499030351639,21.54642590417,0.594699203968,391.112884150093
62,0.5294999927282,0.5602179765701,21.53611096277,0.609088242054,400.5760516613511
63,0.5314999967813,0.5704718828201,21.52585705652,0.6235993504524,410.11950055121747
64,0.5335000008345,0.5806800127029,21.51564892663,0.6382172703743,419.7331956474649
65,0.5355000048876,0.5908576250076,21.50547131433,0.6533997654915,429.71819212007216
66,0.5374999940395,0.6010047197342,21.4953242196,0.6690400242805,440.0042437626581
67,0.5394999980927,0.6110907793045,21.48523816003,0.6846955418587,450.3003305776688
68,0.5415000021458,0.6211310625076,21.47519787683,0.7004426121712,460.6566284266358
69,0.5434999912977,0.6311560869217,21.46517285242,0.7158387303352,470.78211731187344
70,0.5460000038147,0.6436377763748,21.45269116296,0.7344086766243,482.9949220427051
71,0.5485000014305,0.6560584306717,21.44027050867,0.7530701756477,495.26793780749307
72,0.5509999990463,0.6684485673904,21.42788037195,0.7720215916634,507.7316218467062
73,0.5534999966621,0.6808234453201,21.41550549402,0.7907746434212,520.0648486455162
74,0.555999994278,0.6931678056717,21.40316113367,0.8099549412727,532.679060269653
75,0.5584999918938,0.7054816484451,21.39084729089,0.8294404149055,545.493975340508
76,0.5610000044107,0.7177802324295,21.37854870691,0.8485596776009,558.0680462754062
77,0.5635000020266,0.7300635576248,21.36626538171,0.8677094578743,570.6621875548908
78,0.5659999996424,0.742316365242,21.3540125741,0.8875153660774,583.6878412447574
79,0.5684999972582,0.7545691728592,21.34175976648,0.9067566990852,596.342193558264
80,0.570999994874,0.7668067216873,21.32952221765,0.9256470799446,608.7657369081072
81,0.5734999924898,0.7790137529373,21.3173151864,0.9451630711555,621.6007223236143
82,0.5760000050068,0.7912055253983,21.30512341394,0.9646332859993,634.4056022221761
83,0.5785000026226,0.8033820390701,21.29294690027,0.9848054051399,647.672100048065
84,0.5810000002384,0.8155738115311,21.28075512781,1.00589299202,661.5406690143778
85,0.5834999978542,0.8277808427811,21.26854809656,1.026034593582,674.7870964952859
86,0.58599999547,0.8399573564529,21.25637158288,1.045626878738,687.6722577723247
87,0.5884999930859,0.8521643877029,21.24416455163,1.065493822098,700.7380521519556
88,0.5909999907017,0.8643714189529,21.23195752038,1.084887742996,713.4927561885255
89,0.5935000032187,0.8765784502029,21.21975048913,1.10484623909,726.6187616019156
90,0.5960000008345,0.888800740242,21.2075281991,1.125231981277,740.0257518401719
91,0.5984999984503,0.9010382890701,21.19529065027,1.145404100418,753.2922496663239
92,0.6009999960661,0.9132605791092,21.18306836023,1.165515184402,766.5186068026455
93,0.6034999936819,0.9254828691483,21.17084607019,1.186022996902,780.0058784199049
94,0.6059999912977,0.9377051591873,21.15862378015,1.206317186356,793.3526576250599
95,0.6085000038147,0.9499274492264,21.14640149011,1.226672410965,806.73957751873
96,0.6110000014305,0.9621649980545,21.13416394128,1.24742436409,820.3874118933376
97,0.6134999990463,0.9744025468826,21.12192639245,1.268054246902,833.9549648889423
98,0.6159999966621,0.9866248369217,21.10970410242,1.288470506668,847.3820254724426
99,0.618499994278,0.9988776445389,21.0974512948,1.309802293777,861.411196395506
100,0.6209999918938,1.011130452156,21.08519848718,1.330767869949,875.1995231828756
101,0.6235000044107,1.023413777351,21.07291516199,1.350848436356,888.4058099752687
102,0.6260000020266,1.035697102547,21.06063183679,1.371508836746,901.9934333154596
103,0.6284999996424,1.047995686531,21.04833325281,1.392779588699,915.9824635493503
104,0.6309999972582,1.060324788094,21.03600415124,1.413378953934,929.5299462010263
105,0.633499994874,1.072638630867,21.02369030847,1.434405565262,943.3584136775686
106,0.6359999924898,1.08496773243,21.01136120691,1.455950975418,957.528077013394
107,0.6385000050068,1.097296833992,20.99903210535,1.477313280106,971.5773182817012
108,0.6410000026226,1.109671711922,20.98665722742,1.499499559402,986.1684588551548
109,0.6435000002384,1.122046589851,20.97428234949,1.521441698074,1000.5990366719178
110,0.6459999978542,1.134451985359,20.96187695398,1.543750047684,1015.2704586250321
111,0.64849999547,1.146872639656,20.94945629968,1.56578373909,1029.761247475554
112,0.6509999930859,1.159323811531,20.93700512781,1.587115526199,1043.7904183986172
113,0.6534999907017,1.171790242195,20.92453869714,1.608233690262,1057.6790969095764
114,0.6560000032187,1.184287190437,20.9120417489,1.630206346512,1072.1297450709255
115,0.6585000008345,1.19678413868,20.89954480066,1.65220952034,1086.6004635768613
116,0.6609999984503,1.209281086922,20.88704785242,1.674426317215,1101.2116744955588
117,0.6630000025034,1.219306111336,20.877022828,1.692614793777,1113.1735999176803
118,0.6649999916553,1.229315876961,20.86701306238,1.710711717606,1125.0753143067004
119,0.6669999957085,1.239340901375,20.85698803796,1.728259325027,1136.6157624905359
120,0.6689999997616,1.249350667,20.84697827234,1.745654344559,1148.0558589520972
121,0.6714999973774,1.261847615242,20.8344813241,1.768176317215,1162.8677733173158
122,0.6739999949932,1.274344563484,20.82198437585,1.791613817215,1178.281798022755
123,0.676499992609,1.286810994148,20.80951794519,1.814440965652,1193.2944158344947
124,0.6789999902248,1.299277424812,20.79705151452,1.836505174637,1207.8052750302606
125,0.6815000027418,1.311713337898,20.78461560144,1.859118700027,1222.6774004292383
126,0.6840000003576,1.324149250984,20.77217968835,1.882342576981,1237.9509327225733
127,0.6864999979734,1.336569905281,20.75975903406,1.905322313309,1253.063902257902
128,0.6889999955893,1.348975300789,20.74735363855,1.928057909012,1268.0163090358826
129,0.6914999932051,1.361350178719,20.73497876062,1.951129198074,1283.1894896049707
130,0.6939999908209,1.373709797859,20.72261914148,1.973956346512,1298.2021074173679
131,0.6965000033379,1.386054158211,20.71027478113,1.996630907059,1313.1143735061758
132,0.6990000009537,1.398368000984,20.69796093835,2.02037358284,1328.7291016581362
133,0.7014999985695,1.410697102547,20.68563183679,2.045062303543,1344.9660104949032
134,0.7039999961853,1.423026204109,20.67330273523,2.06968998909,1361.1627786424979
135,0.7064999938011,1.435355305672,20.66097363367,2.094073534012,1377.198984032744
136,0.7089999914169,1.447699666023,20.64862927331,2.118304491043,1393.1348376994008
137,0.7115000039339,1.460059285164,20.63626965417,2.142474412918,1409.030550676885
138,0.7140000015497,1.472449421883,20.62387951745,2.166552782059,1424.8660526206104
139,0.7164999991655,1.484839558601,20.61148938074,2.191149950027,1441.0427504229608
140,0.7189999967813,1.497290730476,20.59903820886,2.215655565262,1457.15923719221
141,0.7214999943972,1.50975716114,20.5865717782,2.240008592606,1473.1753722378699
142,0.723999992013,1.522254109383,20.57407482995,2.264147996902,1489.0510148701103
143,0.7259999960661,1.532263875008,20.56406506433,2.283435106277,1501.735472700628
144,0.7280000001192,1.542288899422,20.55404003992,2.303057909012,1514.6407043229106
145,0.7300000041723,1.552329182625,20.54399975671,2.322345018387,1527.3251621534282
146,0.7319999933243,1.562384724617,20.53394421472,2.341540575027,1539.9494089495295
147,0.7339999973774,1.57242500782,20.52390393152,2.360919237137,1552.6940778144638
148,0.7360000014305,1.582465291023,20.51386364831,2.380481004715,1565.5591687469162
149,0.7379999905825,1.592505574226,20.50382336511,2.40025639534,1578.5647520921304
150,0.7399999946356,1.602561116219,20.49376782312,2.419818162918,1591.4298430245826
151,0.7419999986887,1.612601399422,20.48372753992,2.439135789871,1604.134371199687
152,0.7440000027418,1.622641682625,20.47368725671,2.458972215652,1617.1800952340739
153,0.7459999918938,1.632681965828,20.46364697351,2.478991746902,1630.3462413366367
154,0.7479999959469,1.642722249031,20.45360669031,2.498797655106,1643.371895027095
155,0.75,1.652732014656,20.44359692468,2.518328905106,1656.216915614961
156,0.7520000040531,1.662741780281,20.43358715906,2.538073778152,1669.2024286149315
157,0.7539999932051,1.672751545906,20.42357739343,2.558062791824,1682.3485043729079
158,0.7559999972582,1.682761311531,20.41356762781,2.577807664871,1695.3340173735357
159,0.7580000013113,1.692771077156,20.40355786218,2.597827196121,1708.5001634760986
160,0.7599999904633,1.702780842781,20.39354809656,2.618121385574,1721.846942680596
161,0.7619999945164,1.712790608406,20.38353833093,2.638324022293,1735.133510851334
162,0.7639999985695,1.722800374031,20.37352856531,2.658038377762,1748.0989535073757
163,0.7660000026226,1.732825398445,20.36350354089,2.677569627762,1760.9439740952419
164,0.7679999917746,1.74283516407,20.35349377527,2.697650194168,1774.150260886977
165,0.7699999958277,1.752844929695,20.34348400964,2.71812748909,1787.6174621596504
166,0.7719999998808,1.76285469532,20.33347424402,2.738299608231,1800.8839599858022
167,0.7740000039339,1.772864460945,20.32346447839,2.758471727371,1814.1504578112967
168,0.776000007987,1.782903194427,20.31342574491,2.779161691666,1827.7575242986686
169,0.777999997139,1.792928218842,20.3034007205,2.800279855728,1841.6462028089702
170,0.7800000011921,1.802953243256,20.29337569608,2.821642160416,1855.6954440772774
171,0.781999990344,1.813008785248,20.28332015409,2.842546701431,1869.4436301748167
172,0.7839999943972,1.823079586029,20.27324935331,2.862779855728,1882.7502686901416
173,0.7859999984503,1.833165645599,20.26316329374,2.882677316666,1895.8361334143588
174,0.7880000025034,1.84325170517,20.25307723417,2.902574777603,1908.9219981379188
175,0.7899999916553,1.85333776474,20.2429911746,2.923052072525,1922.3891994105916
176,0.7919999957085,1.86342382431,20.23290511503,2.944048166275,1936.1975965425474
177,0.7939999997616,1.87352514267,20.22280379667,2.964739084244,1949.8052902279826
178,0.7960000038147,1.883626461029,20.21270247831,2.985185861588,1963.2524211560692
179,0.7979999929667,1.893712520599,20.20261641874,3.005968332291,1976.9203258752632
180,0.7999999970198,1.90379858017,20.19253035917,3.027055978775,1990.7889340409781
181,0.8020000010729,1.913899898529,20.18242904081,3.047838449478,2004.4568387601723
182,0.8039999902248,1.924001216888,20.17232772245,3.068620920181,2018.124743479366
183,0.805999994278,1.934087276459,20.16224166288,3.089586496353,2031.913070266736
184,0.8079999983311,1.944173336029,20.15215560331,3.110430002213,2045.6211156757602
185,0.8100000023842,1.954228878021,20.14210006132,3.130937814713,2059.1083872930194
186,0.8119999915361,1.964284420013,20.13204451932,3.151689767838,2072.7562216676274
187,0.8139999955893,1.974309444427,20.12201949491,3.173204660416,2086.905814658866
188,0.8159999996424,1.984334468842,20.1119944705,3.195177316666,2101.3564628202153
189,0.8180000036955,1.994359493256,20.10196944608,3.216814279556,2115.5863371898
190,0.8199999928474,2.004369258881,20.09195968046,3.238420724869,2129.7961412154555
191,0.8219999969006,2.014379024506,20.08194991483,3.260362863541,2144.226719032218
192,0.8240000009537,2.02440404892,20.07192489042,3.282030344009,2158.476663746389
193,0.8260000050068,2.034429073334,20.061899866,3.303209543228,2172.405482946521
194,0.8279999941587,2.044454097748,20.05187484159,3.324449777603,2186.374442835825
195,0.8299999982119,2.054494380951,20.04183455839,3.346269845963,2200.7247392742424
196,0.832000002265,2.064549922943,20.03177901639,3.368578195572,2215.396161226699
197,0.8339999914169,2.074605464935,20.0217234744,3.391283273697,2230.3284976600935
198,0.83599999547,2.084691524506,20.01163741483,3.414171457291,2245.3812561616633
199,0.8379999995232,2.094777584076,20.00155135526,3.436846017838,2260.293522250471
200,0.8400000035763,2.104909420013,19.99141951932,3.459245920181,2275.0251552366867
201,0.8419999927282,2.115041255951,19.98128768339,3.481371164322,2289.5761551216256
202,0.8439999967813,2.125203609467,19.97112532987,3.503343820572,2304.026803282975
203,0.8460000008345,2.13539648056,19.96093245878,3.525652170181,2318.6982252354314
204,0.8480000048876,2.145604610443,19.95072432889,3.548174142838,2333.510139601308
205,0.8499999940395,2.155827999115,19.94050094022,3.570451974869,2348.161491209178
206,0.8519999980927,2.166066646576,19.93026229276,3.592577219009,2362.712491093459
207,0.8540000021458,2.176290035248,19.92003890409,3.614458322525,2377.1029282210493
208,0.8559999912977,2.186528682709,19.90980025663,3.636400461197,2391.533506037812
209,0.8579999953508,2.19676733017,19.89956160917,3.658525705338,2406.084505922751
210,0.859999999404,2.207005977631,19.88932296171,3.680925607681,2420.8161389089664
211,0.8620000034571,2.217229366302,19.87909957303,3.703844308853,2435.888967755123
212,0.863999992609,2.227452754974,19.86887618436,3.726824045181,2451.0019372904517
213,0.8659999966621,2.237660884857,19.85866805448,3.749162912369,2465.6934295881524
214,0.8680000007153,2.247853755951,19.84847518339,3.771501779556,2480.384921885195
215,0.8700000047684,2.258046627045,19.83828231229,3.794084787369,2495.2369769402444
216,0.8719999939203,2.268224239349,19.82810469999,3.817064523697,2510.349946475573
217,0.8739999979734,2.278386592865,19.81794234647,3.840440988541,2525.7238304918396
218,0.8760000020266,2.288533687592,19.80779525175,3.863664865494,2540.997362784517
219,0.8779999911785,2.29865026474,19.7976786746,3.886553049088,2556.050121286087
220,0.8799999952316,2.30873632431,19.78759261503,3.909319162369,2571.0225984086537
221,0.8819999992847,2.318807125092,19.77752181425,3.932359933853,2586.1757086331554
222,0.8840000033379,2.328877925873,19.76745101346,3.955492258072,2601.3890298920733
223,0.8859999924898,2.338918209076,19.75741073026,3.978746652603,2616.6826325293373
224,0.8879999965429,2.34894323349,19.74738570585,4.0022149086,2632.1168843792075
225,0.890000000596,2.358952999115,19.73737594022,4.025621891022,2647.5108387400605
226,0.8920000046492,2.36896276474,19.7273661746,4.048998355865,2662.884722755669
227,0.894500002265,2.381459712982,19.71486922635,4.078661441803,2682.3930977738196
228,0.8969999998808,2.393941402435,19.7023875369,4.107988834381,2701.6806990002046
229,0.8994999974966,2.406423091888,19.68990584745,4.137255191803,2720.9281595374177
230,0.9019999951124,2.418920040131,19.67740889921,4.167070865631,2740.5368862784994
231,0.9044999927282,2.431416988373,19.66491195096,4.196794986725,2760.085401985823
232,0.906999990344,2.443898677826,19.65243026151,4.22648859024,2779.613847347902
233,0.9089999943972,2.453908443451,19.64242049589,4.250322818756,2795.2887865342786
234,0.9109999984503,2.463933467865,19.63239547147,4.274096012115,2810.923585030825
235,0.9130000025034,2.47394323349,19.62238570585,4.297502994537,2826.317539391678
236,0.9149999916553,2.483968257904,19.61236068143,4.321032047272,2841.7917751315345
237,0.9169999957085,2.493993282318,19.60233565702,4.344866275787,2857.4667143172533
238,0.9189999997616,2.504033565521,19.59229537382,4.368883609772,2873.2620755718062
239,0.9210000038147,2.514058589935,19.5822703494,4.393114566803,2889.1979292384626
