,time,travel,position,force,stress
0,0.0,0.0,23.29607465267,-0.00994017906487,-5.493154977057758
1,0.0,0.0,23.29606916904,-0.009914131835103,-5.47876072229641
2,0.0,0.0,23.29606130123,-0.008847063407302,-4.889075948331734
3,0.0,0.0,23.29606273174,-0.009274071082473,-5.125049497781885
4,0.0,0.0,23.2960660696,-0.009371584281325,-5.178937371441602
5,0.0,0.0,24.62201001978,-0.01041732635349,-5.756836746386815
6,0.0,0.0,24.62200381755,-0.01018296089023,-5.627321392331777
7,0.008000001311302,2.246350049973e-06,24.6220015712,-0.009277938865125,-5.12718691697588
8,0.01100000739098,6.750226020813e-06,24.62199706732,-0.009418099187315,-5.2046425006630015
9,0.01299999654293,-4.91738319397e-07,24.62200430929,-0.009273021481931,-5.124469466134206
10,0.01399999856949,2.361834049225e-06,24.62200145572,-0.009123771451414,-5.041990715740467
11,0.1140000075102,1.58696584549e-05,24.62198794789,-0.007622385863215,-4.212293014876566
12,0.2145000100136,-2.285939081048e-05,24.62202667694,-0.009560059756041,-5.283092938985501
13,0.3149999976158,-1.357880501018e-05,24.62201739636,-0.009046223014593,-4.999135795431052
14,0.4150000065565,-4.884236659564e-06,24.62200870179,-0.009049088694155,-5.000719431082474
15,0.5155000090599,0.0001633333158679,24.62184048423,-0.008349040523171,-4.613857879643086
16,0.5879999995232,0.01016448624432,24.61183933131,-0.004463419318199,-2.466580720775098
17,0.6085000038147,0.02020271494985,24.6018011026,0.01452015992254,8.024150090823172
18,0.6195000112057,0.03040512278676,24.59159869476,0.02673768252134,14.775813680878587
19,0.6274999976158,0.04089554026723,24.58110827728,0.02055215090513,11.357556971256981
20,0.6344999969006,0.05156906321645,24.57043475433,0.01569127291441,8.671332110181673
21,0.6410000026226,0.06224258616567,24.55976123138,0.01259755250067,6.961676219935062
22,0.6469999998808,0.07246215641499,24.54954166114,0.01184072252363,6.543435831302973
23,0.652999997139,0.08278472721577,24.53921909033,0.01006751414388,5.563523057798864
24,0.6590000092983,0.09290511906147,24.52909869849,0.007981589995325,4.410796880169415
25,0.6655000001192,0.1033306866884,24.51867313086,0.006519607268274,3.602874040846027
26,0.672499999404,0.113535001874,24.50846881568,0.008937410078943,4.939003446191337
27,0.6805000007153,0.1240864545107,24.49791736304,0.02120166271925,11.716491053943725
28,0.6885000020266,0.1342716962099,24.48773212134,0.02811389416456,15.53633758976429
29,0.6965000033379,0.1443043500185,24.47769946753,0.0306563898921,16.9413749606949
30,0.7049999982119,0.1547489911318,24.46725482642,0.03192552179098,17.64272431882808
31,0.713500007987,0.1648579388857,24.45714587866,0.03653462976217,20.189815696811223
32,0.7224999964237,0.175302579999,24.44670123755,0.03955491632223,21.85889047315694
33,0.7314999997616,0.1854611188173,24.43654269873,0.04367288202047,24.13456615495473
34,0.7405000030994,0.1955929547548,24.4264108628,0.05375321954489,29.705175686365017
35,0.7489999979734,0.2057286053896,24.41627521216,0.05624898523092,31.084389039596996
36,0.7569999992847,0.2157345563173,24.40626926123,0.0535351857543,29.58468556298494
37,0.7655000090599,0.2263317853212,24.39567203223,0.04921790212393,27.1988625404047
38,0.7744999974966,0.2368641644716,24.38513965308,0.04978259652853,27.510924713420067
39,0.7840000092983,0.2471142560244,24.37488956153,0.05303867906332,29.31030537497221
40,0.7945000082254,0.2572613656521,24.3647424519,0.05894561856985,32.57460614236474
41,0.8060000091791,0.2673951089382,24.35460870861,0.07246681302786,40.04670660937527
42,0.8170000016689,0.2775631844997,24.34444063305,0.07983203977346,44.11688801060747
43,0.8270000070333,0.2877102792263,24.33429353832,0.07961360365152,43.99617555034158
44,0.8369999974966,0.2982388436794,24.32376497387,0.07866853475571,43.473910320027144
45,0.847000002861,0.3087063729763,24.31329744457,0.07612732052803,42.06958113325379
46,0.8570000082254,0.3187099397182,24.30329387783,0.08102152496576,44.77422289980594
47,0.8675000071526,0.3290058076382,24.29299800991,0.08742735534906,48.31422140713388
48,0.8780000060797,0.3394351899624,24.28256862759,0.093355871737,51.59044601943234
49,0.8879999965429,0.3496967256069,24.27230709194,0.0947565510869,52.36449130493001
50,0.8980000019073,0.3600688874722,24.26193493008,0.09681195765734,53.50035281794767
51,0.9080000072718,0.370292276144,24.25171154141,0.09902986139059,54.7260137292279
52,0.9185000061989,0.3807788789272,24.24122493862,0.1019333228469,56.330528461340855
53,0.929000005126,0.3911395967007,24.23086422085,0.1055677756667,58.33900461309588
54,0.9395000040531,0.4015499055386,24.22045391201,0.1116598471999,61.70561328732575
55,0.9495000094175,0.4116168916225,24.21038692593,0.1153601035476,63.750453872199415
56,0.9594999998808,0.4218135774136,24.20019024014,0.1163375899196,64.29063369132707
57,0.9695000052452,0.4319530427456,24.1900507748,0.1184194609523,65.44112003068136
58,0.9800000041723,0.4423213899136,24.17968242764,0.1215937659144,67.19530866123465
59,0.9905000030994,0.4525409638882,24.16946285366,0.1253255009651,69.25754504883253
60,1.001000002027,0.4627910554409,24.15921276211,0.1300042271614,71.84310894298073
61,1.011500000954,0.4730945527554,24.14890926479,0.1354392170906,74.84660030717119
62,1.021999999881,0.4834972321987,24.13850658535,0.1411135792732,77.98237388444379
63,1.032000005245,0.4935642182827,24.12843959927,0.145016014576,80.13894287241925
64,1.04200001061,0.5036922693253,24.11831154822,0.1474459767342,81.48179179257127
65,1.052000001073,0.5137592554092,24.10824456214,0.1486705988646,82.15854410324101
66,1.0625,0.5242000818253,24.09780373572,0.1502801626921,83.048023406604
67,1.072999998927,0.5345417261124,24.08746209144,0.1544849127531,85.37165797838905
68,1.083499997854,0.5448280572891,24.07717576026,0.1604367941618,88.66079459953961
69,1.093999996781,0.5551735162735,24.06683030128,0.1649781912565,91.17046750288918
70,1.10450001061,0.5656181573868,24.05638566016,0.1719292998314,95.01179836977737
71,1.114500001073,0.5757194757462,24.0462843418,0.175864636898,97.18654957422926
72,1.124500006437,0.5858970880508,24.0361067295,0.1772845387459,97.97121762214108
73,1.134499996901,0.5960861444473,24.0259176731,0.1794741749763,99.18125730839546
74,1.144500002265,0.6062179803848,24.01578583717,0.1831281781197,101.20053738598378
75,1.154500007629,0.6162925958633,24.00571122169,0.1859043240547,102.73469484535781
76,1.165000006557,0.6267639398575,23.99523987769,0.1907833218575,105.43093310108738
77,1.175500005484,0.637212395668,23.98479142188,0.1973426938057,109.0557819522483
78,1.185500010848,0.6472831964493,23.9747206211,0.2014806866646,111.34252507020976
79,1.195500001311,0.6575142145157,23.96448960303,0.2051218152046,113.35469036734162
80,1.205500006676,0.6677643060684,23.95423951148,0.2083495259285,115.1383921610201
81,1.215499997139,0.6779342889786,23.94406952857,0.2121070027351,117.21485399200462
82,1.225500002503,0.6879516839981,23.93405213355,0.2151816487312,118.9139689522026
83,1.236000001431,0.6983352899551,23.92366852759,0.2203152775764,121.75092175328842
84,1.246500000358,0.7086387872696,23.91336503028,0.2242034077644,123.89958542969475
85,1.256999999285,0.7190109491348,23.90299286842,0.2284167408943,126.22796318843237
86,1.267499998212,0.7295089960098,23.89249482154,0.2329943776131,128.7576628810573
87,1.277500003576,0.7396408319473,23.8823629856,0.2367175221443,130.81515196434216
88,1.287500008941,0.7498222589493,23.8721815586,0.2413876652718,133.39597267159309
89,1.297499999404,0.7600036859512,23.8620001316,0.24488478899,135.32855783254948
90,1.307500004768,0.7701851129532,23.8518187046,0.2478092312813,136.9446670216029
91,1.317500010133,0.7802253961563,23.84177842139,0.2509196400642,138.66354526061323
92,1.32800000906,0.790589928627,23.83141388892,0.2551262974739,140.988233873974
93,1.338500007987,0.800864815712,23.82113900184,0.2593691945076,143.3329492765549
94,1.349000006914,0.8111488223076,23.81085499524,0.2650298476219,146.46114693026803
95,1.359500005841,0.8215381503105,23.80046566724,0.2696751952171,149.0282650974768
96,1.369500011206,0.8315746188164,23.79042919873,0.2734736800194,151.12738882159306
97,1.379500001669,0.8417178988457,23.7802859187,0.2767800688744,152.9545698287361
98,1.389500007033,0.8518497347832,23.77015408277,0.2803000807762,154.89980348815897
99,1.399499997497,0.8619319796562,23.76007183789,0.2835139632225,156.67586348067604
100,1.409500002861,0.8719455599785,23.75005825757,0.2872361540794,158.73282554320068
101,1.420000001788,0.8824283480644,23.73957546949,0.2913751006126,161.02009568192236
102,1.430500000715,0.8929187655449,23.72908505201,0.2959565520287,163.55190345764345
103,1.44050000608,0.9029704928398,23.71903332471,0.2996363043785,165.5854130959236
104,1.450499996543,0.9130374789238,23.70896633863,0.3039097189903,167.946993163108
105,1.460500001907,0.9231197237968,23.69888409375,0.3082684874535,170.35574158918905
106,1.470500007272,0.9332134127617,23.68879040479,0.3124703764915,172.67779509863817
107,1.480499997735,0.9432308077812,23.67877300977,0.3168048262596,175.07310449508483
108,1.490999996662,0.9537059664726,23.66829785108,0.3207964301109,177.2789499249426
109,1.50150001049,0.9641506075859,23.65785320996,0.3243770003319,179.2576494032752
110,1.512000009418,0.9745914340019,23.64741238355,0.3285674452782,181.57337866354638
111,1.522500008345,0.9850665926933,23.63693722486,0.3328904509544,183.96236381070455
112,1.532499998808,0.9951602816582,23.62684353589,0.3370561003685,186.2643905309888
113,1.542500004172,1.005353212357,23.61665060519,0.3418969511986,188.93954795592256
114,1.552500009537,1.015622377396,23.60638144015,0.3461007475853,191.26265550694743
115,1.5625,1.025868654251,23.5961351633,0.3490681052208,192.90248063059778
116,1.572500005364,1.035973787308,23.58603003024,0.3525742888451,194.84007248891444
117,1.583000004292,1.046406984329,23.57559683322,0.3569192290306,197.24117911377886
118,1.593500003219,1.056683778763,23.56532003879,0.3624371886253,200.29052128488252
119,1.604000002146,1.066989898682,23.55501391887,0.3674993515015,203.08798046711692
120,1.614500001073,1.077381134033,23.54462268352,0.3722848892212,205.73257068740503
121,1.625,1.087879180908,23.53412463664,0.3768644332886,208.2633244215504
122,1.635000005364,1.097946166992,23.52405765056,0.3817358016968,210.95534651108767
123,1.645000010729,1.107975006104,23.51402881145,0.3847116231918,212.5998489440334
124,1.655500009656,1.118419647217,23.50358417033,0.3894332647324,215.2091287728338
125,1.666000008583,1.128799438477,23.49320437907,0.3951352834702,218.36018595242922
126,1.67650000751,1.139144897461,23.48285892009,0.4002670049667,221.19608471193933
127,1.687000006437,1.149486541748,23.4725172758,0.4049581289291,223.788499876081
128,1.697500005364,1.159900665283,23.46210315227,0.4094995260239,226.29817277948584
129,1.708000004292,1.170372009277,23.45163180827,0.413529753685,228.52536255049193
130,1.718000009656,1.180446624756,23.44155719279,0.4167026281357,230.2787606499325
131,1.728000000119,1.190574645996,23.43142917155,0.4202221632004,232.22373079900285
132,1.738000005484,1.200672149658,23.42133166789,0.4249647855759,234.844605084694
133,1.748500004411,1.211166381836,23.41083743571,0.4311007261276,238.235456714281
134,1.759000003338,1.221607208252,23.4003966093,0.4369629621506,241.47505338314153
135,1.769500002265,1.232036590576,23.38996722697,0.4425457715988,244.56023296654837
136,1.780000001192,1.2424659729,23.37953784465,0.4473761320114,247.2295931630091
137,1.790500000119,1.252895355225,23.36910846233,0.451700091362,249.6191053309828
138,1.800999999046,1.263278961182,23.35872485637,0.4561289548874,252.06658978357586
139,1.811499997973,1.27367401123,23.34832980632,0.4618042707443,255.20289038160868
140,1.821999996901,1.284160614014,23.33784320354,0.4667137861252,257.91599330194174
141,1.832000002265,1.294319152832,23.32768466472,0.4711846113205,260.38666666837156
142,1.842000007629,1.304550170898,23.31745364665,0.4735730886459,261.7065901850393
143,1.851999998093,1.314723372459,23.30728044509,0.4763681292534,263.2511892434636
144,1.862000003457,1.324736952782,23.29726686477,0.4802162051201,265.3777180475537
145,1.872500002384,1.335124373436,23.28687944411,0.4863693118095,268.77805605099053
146,1.883000001311,1.345473647118,23.27653017043,0.4914953112602,271.6107926859393
147,1.893500000238,1.355956435204,23.26604738235,0.4972993731499,274.8182410878735
148,1.903500005603,1.366057753563,23.25594606399,0.5020954012871,277.4686285366345
149,1.913500010967,1.376155257225,23.24584856033,0.506513774395,279.91031576075466
150,1.923500001431,1.38620698452,23.23579683303,0.5093087553978,281.45488188035034
151,1.934000000358,1.396640181541,23.22536363601,0.5140389800072,284.0689048960481
152,1.944499999285,1.406970381737,23.21503343581,0.5189017653465,286.7561837986328
153,1.954999998212,1.417285323143,23.20471849441,0.5243071913719,289.74333751897996
154,1.965499997139,1.427741408348,23.1942624092,0.5301980376244,292.9987448109235
155,1.975500002503,1.437770247459,23.18423357009,0.5349587798119,295.6296324912247
156,1.985500007868,1.447799086571,23.17420473098,0.5386595129967,297.6747365864509
157,1.996000006795,1.458258986473,23.16374483108,0.542548596859,299.8239272836174
158,2.006500005722,1.468638777733,23.15336503982,0.5474428534508,302.5285978716211
159,2.017000004649,1.47898042202,23.14302339553,0.5520619750023,305.08122296767505
160,2.027500003576,1.489352583885,23.13265123366,0.5580977797508,308.416737416499
161,2.037500008941,1.499377608299,23.12262620925,0.563795030117,311.5651594922381
162,2.047499999404,1.50949037075,23.1125134468,0.5681762099266,313.9862929063778
163,2.057500004768,1.519561171532,23.10244264602,0.5726012587547,316.43166927587475
164,2.068000003695,1.52999818325,23.0920056343,0.5767440199852,318.72104749769255
165,2.078500002623,1.540248274803,23.08175554275,0.5816649794579,321.44047466725885
166,2.08900000155,1.550338149071,23.07166566848,0.5872029662132,324.50088427449305
167,2.099500000477,1.560542464256,23.06146135329,0.5944203734398,328.48937745650886
168,2.109999999404,1.571036577225,23.05096724033,0.5975381731987,330.2123401065076
169,2.120000004768,1.581176042557,23.04082777499,0.6017052531242,332.5151573579046
170,2.130000010133,1.591361284256,23.03064253329,0.6059691309929,334.8714672174315
171,2.140000000596,1.601508378983,23.02049543857,0.6097900271416,336.9829759296065
172,2.150499999523,1.611937761307,23.01006605624,0.6146156191826,339.6497010222108
173,2.16099999845,1.6222012043,22.99980261325,0.6221801638603,343.8300297642089
174,2.171499997377,1.632584810257,22.98941900729,0.6281625628471,347.136031049963
175,2.181500002742,1.642632722855,22.9793710947,0.6312353014946,348.8340919686405
176,2.191500008106,1.652692079544,22.96931173801,0.6356374621391,351.266819839671
177,2.202000007033,1.663148164749,22.9588556528,0.640022456646,353.69006133690687
178,2.21250000596,1.673474550247,22.9485292673,0.6438342928886,355.79656335172155
179,2.223000004888,1.683741807938,22.93826200961,0.6495162844658,358.93655309518647
180,2.233500003815,1.694079637527,22.92792418002,0.6555892825127,362.29262135404605
181,2.243500009179,1.704138994217,22.91786482333,0.6608230471611,365.1849113358949
182,2.253499999642,1.714434862137,22.90756895541,0.6640016436577,366.9414715599521
183,2.263500005007,1.724829912186,22.89717390536,0.668210208416,369.26721421483336
184,2.273500010371,1.735076189041,22.88692762851,0.6721050143242,371.4195670366165
185,2.283500000834,1.745097398758,22.87690641879,0.6765481829643,373.87495680072345
186,2.293999999762,1.755442857742,22.86656095981,0.6817037463188,376.72403107951556
187,2.304499998689,1.765748262405,22.85625555514,0.6870605349541,379.68430674064916
188,2.314999997616,1.776040315628,22.84596350192,0.6922571063042,382.5560429125177
189,2.325499996543,1.786385774612,22.83561804294,0.6983205676079,385.9068409636645
190,2.336000010371,1.796826601028,22.82517721652,0.7032987475395,388.6578893793416
191,2.346500009298,1.807309389114,22.81469442844,0.7082177996635,391.3762625073322
192,2.357000008225,1.817761063576,22.80424275397,0.7135646939278,394.3310703280025
193,2.366999998689,1.827782273293,22.79422154426,0.7178753018379,396.7132042051673
194,2.377000004053,1.837895035744,22.78410878181,0.7221382260323,399.06898704393393
195,2.387000009418,1.847984910011,22.77401890754,0.7278173565865,402.2073957250629
196,2.396999999881,1.858025193214,22.76397862434,0.7327402234077,404.9278769360943
197,2.407499998808,1.868496537209,22.75350728034,0.7377384305,407.68999278795724
198,2.417999997735,1.878895401955,22.7431084156,0.7436712384224,410.9685889937375
199,2.428499996662,1.88930952549,22.73269429206,0.7485750317574,413.678529789454
200,2.438500002027,1.899319291115,22.72268452644,0.7548616528511,417.1526507005933
201,2.448500007391,1.909435868263,22.71256794929,0.7584279179573,419.1234448673568
202,2.458499997854,1.919518113136,22.70248570441,0.7629893422127,421.64418520689213
203,2.468999996781,1.929993271828,22.69201054572,0.7679713368416,424.39734170566544
204,2.47950001061,1.940312027931,22.68169178962,0.7734022736549,427.3985932315558
205,2.490000009537,1.950585007668,22.67141880988,0.777319252491,429.5631992862491
206,2.500500008464,1.960968613625,22.66103520393,0.7837269902229,433.1042518350975
207,2.510499998927,1.971077561378,22.65092625617,0.7880728840828,435.5058854807773
208,2.520500004292,1.981255173683,22.64074864387,0.7917426228523,437.53386140099224
209,2.530500009656,1.991303086281,22.63070073127,0.7963221669197,440.0646151351377
210,2.541000008583,2.001682758331,22.62032105922,0.8033545613289,443.95086628790153
211,2.55150000751,2.011984348297,22.61001946925,0.8093321919441,447.25423246979915
212,2.562000006437,2.022333621979,22.59967019557,0.8170245289803,451.50518199493837
213,2.571999996901,2.03236246109,22.58964135646,0.8228915333748,454.7474137676
214,2.582000002265,2.042604923248,22.5793988943,0.8281844258308,457.6723790371354
215,2.592000007629,2.052896976471,22.56910684108,0.8317530751228,459.644490755827
216,2.601999998093,2.063117980957,22.55888583659,0.8366221785545,462.33526117103804
217,2.612000003457,2.073173522949,22.5488302946,0.8403424620628,464.39116919204224
218,2.622500002384,2.083644866943,22.53835895061,0.8459739089012,467.50322683471785
219,2.633000001311,2.09411239624,22.52789142131,0.8504561781883,469.9802244503809
220,2.643000006676,2.104167938232,22.51783587932,0.8545941710472,472.26696756834235
221,2.652999997139,2.114276885986,22.50772693156,0.8589858412743,474.69389821095507
222,2.663000002503,2.124404907227,22.49759891032,0.8650349974632,478.03679095053275
223,2.673000007868,2.134536743164,22.48746707439,0.8692321181297,480.3562093561808
224,2.682999998331,2.144664764404,22.47733905315,0.8747653365135,483.4139838596138
225,2.693000003695,2.154731750488,22.46727206706,0.8804129958153,486.53500085537905
226,2.703500002623,2.16520690918,22.45679690837,0.8861665129662,489.7145171565239
227,2.71400000155,2.17552947998,22.44647433757,0.8915557265282,492.69271152378155
228,2.724500000477,2.185771942139,22.43623187541,0.8993625044823,497.0069035411977
229,2.734999999404,2.196077346802,22.42592647075,0.9050435423851,500.1463662638471
230,2.745499998331,2.20652961731,22.41547420024,0.910646378994,503.2426132834397
231,2.755500003695,2.216619491577,22.40538432597,0.9151439070702,505.7280432314321
232,2.76550000906,2.226751327515,22.39525249004,0.9193314909935,508.04219142936734
233,2.775499999523,2.236791610718,22.38521220683,0.9238676428795,510.54896571850804
234,2.78599999845,2.247228622437,22.37477519511,0.9292730689049,513.5361194388553
235,2.796499997377,2.257604598999,22.36439921855,0.934861600399,516.6244611468786
236,2.807000011206,2.267961502075,22.35404231547,0.9413656592369,520.2187427934492
237,2.817500010133,2.278432846069,22.34357097148,0.9470457434654,523.3576784953384
238,2.827500000596,2.288438796997,22.33356502055,0.9525141119957,526.3796155864683
239,2.837999999523,2.298917770386,22.32308604716,0.9583210349083,529.5886450506831
